1.486	0.00305176	0.0107178
1.488	0	0.0106018
1.49	-0.00793457	0.0105835
1.492	-0.00732422	0.0105225
1.494	-0.00732422	0.0104858
1.496	-0.0012207	0.0103577
1.498	0.00732422	0.0103333
1.5	0.0164795	0.0103516
1.502	0.00305176	0.0101685
1.504	0.00305176	0.00987549
1.506	0.00854492	0.00979614
1.508	0.00366211	0.00959473
1.51	-0.00610352	0.00960083
1.512	-0.032959	0.00982056
1.514	-0.00854492	0.0097168
1.516	-0.00488281	0.00967407
1.518	0.0152588	0.00976563
1.52	0.00732422	0.00978394
1.522	-0.00366211	0.00957031
1.524	-0.0140381	0.00958862
1.526	0.00305176	0.00948486
1.528	0.00183105	0.00941772
1.53	-0.032959	0.00958862
1.532	0.0567627	0.010083
1.534	-0.0292969	0.0103027
1.536	0.0140381	0.0102661
1.538	0.0280762	0.0105225
1.54	0.00244141	0.0104736
1.542	-0.00915527	0.0104126
1.544	-0.0146484	0.0105347
1.546	-0.00915527	0.0105408
1.548	0.00305176	0.0103699
1.55	-0.00305176	0.0102051
1.552	-0.0164795	0.0101685
1.554	0.00305176	0.0100952
1.556	-0.010376	0.00999756
1.558	0.020752	0.00996704
1.56	-0.0317383	0.0102783
1.562	-0.00183105	0.0102783
1.564	0.0140381	0.010376
1.566	0.0158691	0.0104919
1.568	-0.0195313	0.0104736
1.57	-0.000610352	0.0104614
1.572	0.00854492	0.0104797
1.574	0.0170898	0.0106079
1.576	0.0244141	0.0107361
1.578	0.000610352	0.0105164
1.58	-0.00854492	0.0105469
1.582	-0.0476074	0.0109131
1.584	-0.0292969	0.011084
1.586	0.012207	0.0110657
1.588	0.0012207	0.0110413
1.59	-0.00244141	0.0109192
1.592	0.00244141	0.0107422
1.594	-0.00305176	0.0106262
1.596	-0.00549316	0.0105774
1.598	0.00244141	0.0105957
1.6	0.0109863	0.0104126
1.602	0.00671387	0.0102539
1.604	-0.00915527	0.010321
1.606	0.0213623	0.0104858
1.608	0.00183105	0.010498
1.61	-0.00610352	0.0105164
1.612	-0.0250244	0.0105957
1.614	-0.00305176	0.0104492
1.616	-0.00244141	0.0103882
1.618	-0.0128174	0.0105042
1.62	0.0128174	0.0105408
1.622	0.0134277	0.0104919
1.624	0.00793457	0.0102722
1.626	0.0128174	0.0103821
1.628	-0.0012207	0.0103455
1.63	-0.012207	0.0104309
1.632	-0.032959	0.0107483
1.634	0.00427246	0.0107178
1.636	-0.00244141	0.0106995
1.638	-0.012207	0.0107422
1.64	0.0109863	0.0107727
1.642	-0.00976563	0.0107971
1.644	0.00244141	0.0108093
1.646	0.00671387	0.0108276
1.648	0	0.0108154
1.65	0.0195313	0.010968
1.652	-0.0183105	0.0110657
1.654	0.0146484	0.0110718
1.656	-0.0140381	0.0111511
1.658	-0.00610352	0.0112
1.66	0.00183105	0.0111389
1.662	-0.00915527	0.0109863
1.664	-0.0152588	0.0109985
1.666	0.00793457	0.0109436
1.668	-0.00183105	0.0109375
1.67	-0.000610352	0.0108337
1.672	0.0134277	0.0108459
1.674	-0.00305176	0.0108643
1.676	-0.010376	0.010791
1.678	-0.0012207	0.0107605
1.68	0.022583	0.0108643
1.682	-0.0286865	0.0111084
1.684	-0.00793457	0.0110718
1.686	-0.000610352	0.0110474
1.688	0.0146484	0.0111938
1.69	0.0128174	0.0112427
1.692	-0.020752	0.011377
1.694	0.00915527	0.0113953
1.696	-0.00915527	0.0114746
1.698	-0.00732422	0.0114746
1.7	0.0146484	0.0114563
1.702	0.0189209	0.011615
1.704	-0.0286865	0.0118713
1.706	-0.0195313	0.0119812
1.708	-0.00183105	0.0119629
1.71	0.012207	0.0120239
1.712	0	0.0116943
1.714	0.00610352	0.0116699
1.716	-0.012207	0.0117432
1.718	-0.0128174	0.0117188
1.72	0.00488281	0.0116943
1.722	0.00732422	0.011731
1.724	0.00244141	0.011615
1.726	0.0128174	0.0117126
1.728	0.00305176	0.0117249
1.73	0.0164795	0.0115601
1.732	-0.032959	0.011322
1.734	-0.0213623	0.0112427
1.736	-0.00305176	0.0111328
1.738	-0.00854492	0.0109375
1.74	0.0146484	0.0110596
1.742	0.00305176	0.0109985
1.744	0.00732422	0.0109253
1.746	-0.0146484	0.0109802
1.748	-0.0146484	0.0110962
1.75	0.00793457	0.011145
1.752	0.00976563	0.0110779
1.754	0.010376	0.0111511
1.756	0.00549316	0.0111023
1.758	-0.00244141	0.0109192
1.76	0.00427246	0.0106445
1.762	-0.010376	0.01073
1.764	-0.0286865	0.0108765
1.766	-0.00732422	0.010791
1.768	0.00488281	0.0106445
1.77	0.0109863	0.0107483
1.772	-0.00366211	0.0106995
1.774	0.00183105	0.0105469
1.776	0.0012207	0.0103149
1.778	-0.000610352	0.0103149
1.78	-0.0012207	0.0102417
1.782	-0.0012207	0.00977783
1.784	0.000610352	0.00949097
1.786	0.00183105	0.00938721
1.788	-0.00244141	0.00939941
1.79	-0.012207	0.00949707
1.792	0.00366211	0.00950928
1.794	0.00488281	0.00952759
1.796	-0.000610352	0.00947876
1.798	-0.00427246	0.00949707
1.8	-0.0115967	0.00950317
1.802	0.00183105	0.00945435
1.804	-0.00305176	0.00939331
1.806	0.0012207	0.00919189
1.808	-0.00549316	0.00922852
1.81	0.0012207	0.00917969
1.812	-0.00366211	0.00896606
1.814	-0.00183105	0.00895386
1.816	0.0189209	0.00911865
1.818	0.00183105	0.00900879
1.82	-0.00732422	0.00895386
1.822	-0.00183105	0.00883789
1.824	-0.0012207	0.00877075
1.826	-0.000610352	0.00864868
1.828	-0.00427246	0.0086792
1.83	0.00366211	0.00859375
1.832	-0.00366211	0.00830078
1.834	-0.00671387	0.0083252
1.836	-0.00366211	0.0083374
1.838	-0.00488281	0.00826416
1.84	0	0.0081543
1.842	0.0195313	0.00825195
1.844	-0.00915527	0.00831909
1.846	-0.0012207	0.00826416
1.848	-0.00732422	0.0083374
1.85	-0.0439453	0.00858154
1.852	0.00671387	0.00846558
1.854	0.0384521	0.00870361
1.856	0.00488281	0.00861206
1.858	-0.0848389	0.00939941
1.86	0.00183105	0.00939941
1.862	0.0738525	0.0100464
1.864	0.0152588	0.0100464
1.866	-0.00915527	0.0100586
1.868	-0.00549316	0.0100952
1.87	0.0177002	0.0102661
1.872	-0.00427246	0.0101746
1.874	-0.0201416	0.0103455
1.876	-0.0128174	0.0103699
1.878	0.0152588	0.0105103
1.88	0.010376	0.0103882
1.882	-0.00915527	0.0101929
1.884	-0.0189209	0.0103027
1.886	-0.022583	0.0105225
1.888	0.0177002	0.010553
1.89	0.022583	0.0106506
1.892	-0.00488281	0.0104919
1.894	-0.00976563	0.010498
1.896	-0.020752	0.010614
1.898	-0.00549316	0.0105957
1.9	0.0115967	0.0105652
1.902	0.0256348	0.0106323
1.904	0.000610352	0.0103516
1.906	0.00427246	0.010199
1.908	-0.0244141	0.0104248
1.91	-0.00549316	0.0103577
1.912	-0.0427246	0.0107849
1.914	0.0341797	0.0110657
1.916	0.0152588	0.0110962
1.918	-0.0146484	0.0111145
1.92	-0.00671387	0.0111328
1.922	0.00488281	0.0111084
1.924	-0.0250244	0.0113342
1.926	-0.0012207	0.0112183
1.928	0.03479	0.0115356
1.93	0.0183105	0.011554
1.932	0.010376	0.0113281
1.934	0.00244141	0.0111389
1.936	-0.00732422	0.0111816
1.938	-0.0177002	0.0112732
1.94	-0.000610352	0.0111328
1.942	-0.0158691	0.011261
1.944	-0.0115967	0.0113037
1.946	-0.00305176	0.0111877
1.948	0.00671387	0.0111084
1.95	0.0152588	0.0111816
1.952	-0.022583	0.0113098
1.954	0.00183105	0.0112244
1.956	0.000610352	0.0111755
1.958	0.0012207	0.0111633
1.96	0.00610352	0.0111816
1.962	0.0109863	0.0111877
1.964	-0.0012207	0.0109131
1.966	-0.043335	0.0112732
1.968	-0.0183105	0.0114075
1.97	0.0524902	0.0118225
1.972	0.0158691	0.0119446
1.974	-0.000610352	0.0119324
1.976	-0.0360107	0.0122803
1.978	-0.0402832	0.012677
1.98	0.0134277	0.0127991
1.982	0.0695801	0.0134827
1.984	-0.00610352	0.0135376
1.986	-0.022583	0.0137451
1.988	0.00244141	0.0137451
1.99	-0.00549316	0.013678
1.992	-0.0134277	0.0137756
1.994	0.03479	0.0140747
1.996	-0.0140381	0.014209
1.998	-0.0317383	0.0144836
2	-0.00915527	0.0144592
2.002	0.00244141	0.0144653
2.004	-0.0262451	0.0146973
2.006	0.0201416	0.0148865
2.008	0.010376	0.0149353
2.01	0.0183105	0.0151062
2.012	0.0250244	0.0153198
2.014	-0.0231934	0.0155334
2.016	-0.0299072	0.0156433
2.018	-0.0323486	0.0159485
2.02	-0.00183105	0.0158936
2.022	0.0488281	0.0163635
2.024	0.00854492	0.0164368
2.026	-0.00366211	0.0164673
2.028	-0.0262451	0.016687
2.03	0.0012207	0.0166626
2.032	0.0115967	0.0167419
2.034	0.00671387	0.0167419
2.036	-0.00183105	0.0167236
2.038	-0.00244141	0.0166992
2.04	-0.0244141	0.0169434
2.042	-0.00732422	0.0168213
2.044	-0.0152588	0.0168823
2.046	0.0201416	0.0170715
2.048	0.00976563	0.0170959
2.05	-0.000610352	0.0166626
2.052	-0.0115967	0.0167114
2.054	-0.0109863	0.0164368
2.056	0.0128174	0.0165161
2.058	0.0305176	0.0159729
2.06	0.00610352	0.0160156
2.062	-0.0231934	0.015509
2.064	-0.00793457	0.0154358
2.066	-0.0140381	0.0154846
2.068	-0.0146484	0.0155762
2.07	0.00732422	0.0154724
2.072	0.0128174	0.0155579
2.074	0.00183105	0.0153748
2.076	0.0012207	0.0152588
2.078	-0.00671387	0.0151733
2.08	-0.00488281	0.0151184
2.082	-0.00488281	0.0150757
2.084	-0.00976563	0.0149841
2.086	-0.0341797	0.0151001
2.088	-0.0195313	0.0151184
2.09	0.0366211	0.0152588
2.092	0.0457764	0.0156677
2.094	0.0366211	0.0159363
2.096	-0.022583	0.0159546
2.098	-0.043335	0.016333
2.1	-0.0439453	0.0166565
2.102	-0.0109863	0.01651
2.104	0.067749	0.0171814
2.106	0.043335	0.017572
2.108	0.0152588	0.0174805
2.11	-0.0476074	0.0179016
2.112	-0.118408	0.0186584
2.114	-0.0109863	0.0184265
2.116	0.090332	0.0191772
2.118	-0.00732422	0.019104
2.12	0.0189209	0.0192261
2.122	0.00671387	0.0192444
2.124	-0.00793457	0.0190735
2.126	0.00427246	0.019104
2.128	-0.0134277	0.0188904
2.13	-0.0262451	0.0189697
2.132	0	0.018866
2.134	0.00671387	0.0189087
2.136	0.0396729	0.0192322
2.138	-0.020752	0.0192627
2.14	0.0140381	0.019397
2.142	0.012207	0.0193604
2.144	-0.00549316	0.0192993
2.146	-0.0213623	0.0194824
2.148	-0.0183105	0.0195984
2.15	0.0183105	0.0196289
2.152	-0.0158691	0.0195618
2.154	-0.0152588	0.019696
2.156	0.043335	0.0201233
2.158	-0.00305176	0.0201416
2.16	-0.0457764	0.0205383
2.162	-0.00488281	0.0204773
2.164	0.0384521	0.0208496
2.166	0.0201416	0.0206177
2.168	-0.0201416	0.020636
2.17	0.00366211	0.0201477
2.172	-0.0152588	0.0201416
2.174	-0.0158691	0.0202942
2.176	0.020752	0.0201416
2.178	0.00366211	0.0197754
2.18	-0.00488281	0.0196899
2.182	-0.00671387	0.0190613
2.184	-0.0164795	0.019165
2.186	-0.0793457	0.0197327
2.188	0.045166	0.0201599
2.19	-0.0189209	0.0202942
2.192	0.0708008	0.0208679
2.194	0.010376	0.0206238
2.196	-0.0372314	0.0208557
2.198	-0.00549316	0.0205933
2.2	0.0164795	0.0206665
2.202	-0.0115967	0.0207581
2.204	-0.0152588	0.0206482
2.206	-0.0219727	0.0206665
2.208	0.0341797	0.0209045
2.21	0.0195313	0.0209167
2.212	0.00732422	0.0207397
2.214	-0.0292969	0.0208008
2.216	0.0177002	0.0206787
2.218	-0.00183105	0.0203735
2.22	-0.022583	0.0205811
2.222	0.020752	0.0203003
2.224	-0.0567627	0.0207825
2.226	0.0335693	0.0210815
2.228	-0.00549316	0.020874
2.23	0.0012207	0.020874
2.232	0.00305176	0.0207886
2.234	-0.0219727	0.0209412
2.236	-0.00732422	0.0209961
2.238	0.055542	0.0215271
2.24	0.0012207	0.0212952
2.242	0.00183105	0.0212402
2.244	-0.0311279	0.0213989
2.246	0.0177002	0.0213745
2.248	0.0274658	0.0215515
2.25	0.0531006	0.0220764
2.252	-0.0567627	0.0225281
2.254	-0.0927734	0.0233459
2.256	-0.0518799	0.0237366
2.258	0.0305176	0.0237366
2.26	0.0482178	0.0241577
2.262	0.00793457	0.0240051
2.264	0.0140381	0.0240662
2.266	-0.0012207	0.023938
2.268	-0.0292969	0.0240845
2.27	0.0256348	0.0242676
2.272	-0.020752	0.0243469
2.274	0.0299072	0.0246277
2.276	-0.0292969	0.0249084
2.278	0.0561523	0.0254028
2.28	0.0134277	0.0254883
2.282	-0.0164795	0.0256042
2.284	-0.0134277	0.0256409
2.286	-0.0189209	0.0254883
2.288	-0.0476074	0.025769
2.29	-0.0274658	0.0256775
2.292	0.0500488	0.0257202
2.294	-0.0115967	0.02547
2.296	-0.0360107	0.0256042
2.298	0.0335693	0.0255066
2.3	-0.0170898	0.025238
2.302	-0.00183105	0.0251465
2.304	0.0213623	0.0246826
2.306	0.0341797	0.0245911
2.308	-0.0152588	0.0245911
2.31	-0.000610352	0.0241211
2.312	0.0531006	0.023468
2.314	-0.0170898	0.0235291
2.316	-0.0195313	0.022821
2.318	-0.0195313	0.0229431
2.32	-0.0170898	0.0229248
2.322	0.022583	0.0230835
2.324	-0.00183105	0.0230225
2.326	0.0445557	0.0234253
2.328	-0.0341797	0.0236328
2.33	-0.0921631	0.024292
2.332	-0.0195313	0.0244873
2.334	0.022583	0.024646
2.336	0.0158691	0.024408
2.338	-0.00488281	0.0242493
2.34	-0.0201416	0.0243103
2.342	-0.0360107	0.0245483
2.344	0.0579834	0.0250732
2.346	0.032959	0.0251892
2.348	-0.0402832	0.0254089
2.35	-0.0238037	0.0254639
2.352	0.0750732	0.0260559
2.354	0.0817871	0.0267212
2.356	0.0274658	0.0265625
2.358	-0.00915527	0.0266235
2.36	-0.0756836	0.0269226
2.362	-0.111084	0.0279846
2.364	-0.00854492	0.0276855
2.366	0.045166	0.0279358
2.368	-0.0268555	0.0280029
2.37	0.078125	0.0287476
2.372	-0.0311279	0.0289063
2.374	-0.0909424	0.029657
2.376	0.022583	0.0296753
2.378	0.0604248	0.0302429
2.38	0.0366211	0.0305603
2.382	-0.00732422	0.0305664
2.384	0.0274658	0.0306763
2.386	0.0012207	0.029895
2.388	0.0256348	0.0296997
2.39	-0.0244141	0.0297546
2.392	-0.0579834	0.0296265
2.394	0.0134277	0.029657
2.396	-0.0140381	0.029425
2.398	-0.0927734	0.0302979
2.4	0.0604248	0.0307373
2.402	0.03479	0.0309692
2.404	0.0183105	0.0309998
2.406	-0.0366211	0.0311462
2.408	-0.0775146	0.0315796
2.41	0.0714111	0.0320984
2.412	-0.010376	0.0321289
2.414	-0.00915527	0.0319275
2.416	0.065918	0.0324097
2.418	-0.0427246	0.0328186
2.42	0.0109863	0.0327026
2.422	-0.0616455	0.0331116
2.424	-0.0372314	0.0329163
2.426	0.00732422	0.0326538
2.428	0.0158691	0.0327576
2.43	0.0305176	0.0330505
2.432	0.0372314	0.0333923
2.434	-0.0402832	0.0335754
2.436	-0.0415039	0.0339172
2.438	0.140991	0.0347717
2.44	-0.0427246	0.0351868
2.442	-0.0152588	0.035321
2.444	-0.0189209	0.035199
2.446	-0.0518799	0.0355408
2.448	0.0494385	0.0357605
2.45	0.0262451	0.0354919
2.452	0.123901	0.0361633
2.454	-0.123291	0.0364685
2.456	-0.109863	0.0370483
2.458	0.0671387	0.0374146
2.46	-0.0439453	0.0373718
2.462	0.0579834	0.0378723
2.464	0.0799561	0.0385315
2.466	-0.0280762	0.0388
2.468	-0.107422	0.0395813
2.47	-0.117188	0.0404968
2.472	0.0762939	0.0410522
2.474	0.00915527	0.0408447
2.476	0.0396729	0.0409485
2.478	0.167847	0.0420654
2.48	-0.10437	0.0429749
2.482	0.032959	0.0431396
2.484	-0.0488281	0.0434937
2.486	-0.0543213	0.0438477
2.488	0.0897217	0.0442688
2.49	-0.0012207	0.0440063
2.492	-0.065918	0.044165
2.494	-0.0231934	0.044281
2.496	-0.187378	0.0457947
2.498	0.032959	0.0457886
2.5	0.105591	0.0466736
2.502	-0.136719	0.0480225
2.504	0.144653	0.0492554
2.506	0.109253	0.0500061
2.508	-0.0354004	0.0502075
2.51	0.0262451	0.0504639
2.512	0.00976563	0.0500305
2.514	-0.0238037	0.0500977
2.516	-0.10376	0.0509399
2.518	0.0622559	0.0513672
2.52	0.0701904	0.0518982
2.522	-0.0415039	0.0520874
2.524	0.0134277	0.0522034
2.526	-0.0952148	0.05271
2.528	0.0622559	0.0529907
2.53	0.0598145	0.0526672
2.532	-0.0415039	0.052887
2.534	-0.0280762	0.0529419
2.536	0.0775146	0.0535583
2.538	-0.158691	0.0550964
2.54	-0.000610352	0.0549011
2.542	0.0238037	0.0547791
2.544	0.192871	0.0561279
2.546	-0.0909424	0.0567078
2.548	-0.0463867	0.0567688
2.55	0.0476074	0.0570068
2.552	0.0616455	0.0568726
2.554	-0.189209	0.0579468
2.556	0.107422	0.0587463
2.558	-0.113525	0.05979
2.56	0.0622559	0.0596558
2.562	0.0354004	0.0588989
2.564	-0.088501	0.0596985
2.566	-0.0488281	0.0597351
2.568	0.03479	0.0598145
2.57	-0.0183105	0.0592163
2.572	0.0640869	0.0595459
2.574	0.0811768	0.0594482
2.576	0.0695801	0.0599182
2.578	-0.0610352	0.0599243
2.58	-0.140381	0.0609619
2.582	0.0927734	0.0618164
2.584	0.0469971	0.0620117
2.586	-0.0335693	0.0623352
2.588	-0.0732422	0.0628113
2.59	-0.012207	0.0626892
2.592	-0.119019	0.0632996
2.594	0.0805664	0.0639709
2.596	0.20874	0.065918
2.598	-0.045166	0.0654419
2.6	-0.0415039	0.0652527
2.602	-0.10498	0.0659546
2.604	-0.0238037	0.0660095
2.606	0.00183105	0.0656616
2.608	-0.0891113	0.0657776
2.61	0.0482178	0.0655457
2.612	0.154419	0.0669861
2.614	-0.111084	0.0680054
2.616	-0.0305176	0.0676514
2.618	0.0598145	0.0678223
2.62	0.0744629	0.068457
2.622	-0.0128174	0.0679687
2.624	-0.0646973	0.0682434
2.626	0.00976563	0.0682678
2.628	-0.00976563	0.0682068
2.63	0.0189209	0.0680908
2.632	0.00915527	0.0678101
2.634	0.00793457	0.0674866
2.636	-0.0402832	0.0674744
2.638	0.0311279	0.0663757
2.64	-0.0622559	0.066571
2.642	-0.126953	0.067688
2.644	0.162964	0.0691284
2.646	0.116577	0.0697754
2.648	-0.0189209	0.0694702
2.65	-0.0842285	0.07005
2.652	0.0360107	0.0691711
2.654	-0.137329	0.0693115
2.656	0.130615	0.069519
2.658	0.0854492	0.0697021
2.66	-0.057373	0.0698364
2.662	-0.057373	0.0698303
2.664	-0.0756836	0.0697876
2.666	0.161133	0.0711182
2.668	-0.0738525	0.0707825
2.67	-0.175781	0.0713684
2.672	0.0115967	0.0707214
2.674	0.0213623	0.0708435
2.676	0.0189209	0.070636
2.678	0.0402832	0.0693604
2.68	-0.055542	0.0688721
2.682	0.0750732	0.0692932
2.684	-0.00427246	0.0688477
2.686	0.00915527	0.068396
2.688	0.0543213	0.068042
2.69	0.0738525	0.0687683
2.692	-0.0158691	0.0682678
2.694	-0.0469971	0.0685059
2.696	-0.149536	0.0681274
2.698	0.0543213	0.0683411
2.7	0.0531006	0.0678162
2.702	-0.00793457	0.0665283
2.704	-0.0482178	0.065564
2.706	-0.0646973	0.0651184
2.708	0.00244141	0.0647888
2.71	0.0854492	0.0653809
2.712	0.0231934	0.0655151
2.714	0.0012207	0.0652893
2.716	-0.012207	0.0643738
2.718	0.0341797	0.064093
2.72	-0.043335	0.0638245
2.722	0.0128174	0.0635376
2.724	0.0280762	0.0636841
2.726	-0.032959	0.0630615
2.728	-0.0683594	0.0631226
2.73	0.0311279	0.0628357
2.732	-0.00793457	0.0625
2.734	0.0323486	0.0625427
2.736	0.0415039	0.0621826
2.738	-0.0134277	0.06073
2.74	-0.0976563	0.0617004
2.742	0.088501	0.0623474
2.744	-0.0543213	0.0609619
2.746	-0.0592041	0.0606445
2.748	0.03479	0.0605286
2.75	-0.15564	0.0616089
2.752	0.0476074	0.0614685
2.754	0.159912	0.0611755
2.756	-0.0360107	0.0604614
2.758	-0.0390625	0.0597168
2.76	-0.0213623	0.0593079
2.762	-0.0177002	0.0591309
2.764	-0.00488281	0.0582947
2.766	-0.0317383	0.0581238
2.768	0.0128174	0.0579041
2.77	0.139771	0.0591187
2.772	-0.0012207	0.05849
2.774	-0.0665283	0.0583435
2.776	-0.0262451	0.0579102
2.778	0.03479	0.0576477
2.78	-0.0360107	0.056604
2.782	-0.00427246	0.055719
2.784	0.0378418	0.0556274
2.786	0.0665283	0.055957
2.788	-0.0616455	0.0558411
2.79	-0.136719	0.0570862
2.792	0.0964355	0.0568604
2.794	-0.0201416	0.0562561
2.796	-0.0524902	0.0546936
2.798	0.0152588	0.0543945
2.8	0.0238037	0.0542175
2.802	0.0354004	0.0535217
2.804	-0.0604248	0.0538879
2.806	0.0610352	0.05448
2.808	0.0775146	0.054364
2.81	-0.0354004	0.0542358
2.812	-0.0158691	0.0528503
2.814	-0.0280762	0.0520203
2.816	-0.0463867	0.052179
2.818	0.0598145	0.052179
2.82	0.00305176	0.0514648
2.822	-0.0695801	0.0520325
2.824	0.0805664	0.0521912
2.826	-0.0408936	0.0525024
2.828	-0.0823975	0.0532288
2.83	0.0939941	0.0539795
2.832	0.00244141	0.0539124
2.834	-0.0238037	0.054071
2.836	-0.00793457	0.0537476
2.838	0.0415039	0.0538513
2.84	-0.0323486	0.0535522
2.842	-0.0695801	0.0529785
2.844	0.0366211	0.0517151
2.846	0.0616455	0.0511658
2.848	-0.0280762	0.0512573
2.85	-0.0012207	0.0504272
2.852	-0.0250244	0.0503174
2.854	0.0286865	0.049231
2.856	0.0177002	0.0481018
2.858	-0.0238037	0.0474854
2.86	-0.152588	0.0484375
2.862	0.00793457	0.0479431
2.864	0.130005	0.0484863
2.866	0.0128174	0.0470032
2.868	0.0177002	0.0464417
2.87	0.0317383	0.0450012
2.872	-0.0622559	0.0455078
2.874	-0.113525	0.0464294
2.876	0.115356	0.0473938
2.878	0.0128174	0.0471191
2.88	0.022583	0.0467896
2.882	-0.0201416	0.0462402
2.884	-0.0140381	0.0463379
2.886	-0.0689697	0.046936
2.888	0.0164795	0.0465576
2.89	0.140381	0.0472229
2.892	-0.045166	0.0475159
2.894	-0.0616455	0.0476624
2.896	-0.0579834	0.0467468
2.898	0.00488281	0.0462524
2.9	0.0500488	0.0462219
2.902	-0.0274658	0.0464172
2.904	0.0775146	0.0467102
2.906	-0.012207	0.0461853
2.908	-0.0164795	0.0463257
2.91	0.00610352	0.0455322
2.912	-0.10498	0.0463501
2.914	0.0268555	0.0466064
2.916	0.0512695	0.0469971
2.918	-0.00549316	0.0467102
2.92	-0.012207	0.0463989
2.922	-0.0177002	0.0464478
2.924	-0.00244141	0.0461914
2.926	-0.0183105	0.0460449
2.928	-0.0683594	0.0460449
2.93	0.119019	0.0469238
2.932	0.0537109	0.0473816
2.934	-0.0482178	0.0475403
2.936	-0.0195313	0.0473206
2.938	-0.0970459	0.0481567
2.94	-0.0012207	0.0471924
2.942	0.065918	0.0469666
2.944	-0.0537109	0.0469604
2.946	-0.000610352	0.0463745
2.948	0.0592041	0.0466187
2.95	-0.0524902	0.0455872
2.952	0.0836182	0.0459473
2.954	0.108643	0.0454346
2.956	-0.151367	0.0465881
2.958	-0.0500488	0.046698
2.96	0.148315	0.0479675
2.962	0.0201416	0.0479919
2.964	-0.0537109	0.0484802
2.966	-0.0360107	0.0485229
2.968	-0.0823975	0.0492187
2.97	0.00671387	0.0478882
2.972	0.0518799	0.0483948
2.974	-0.0183105	0.0479126
2.976	-0.0463867	0.048114
2.978	0.065918	0.0484253
2.98	0.0860596	0.0489258
2.982	-0.0201416	0.0490845
2.984	-0.0610352	0.0493164
2.986	-0.0354004	0.0490051
2.988	-0.0170898	0.0485596
2.99	-0.0299072	0.0474915
2.992	0.0598145	0.0471252
2.994	0.043335	0.0473572
2.996	-0.0531006	0.0473633
2.998	-0.0793457	0.0480042
3	0.0622559	0.0483887
3.002	0.0653076	0.0486877
3.004	-0.0689697	0.0487732
3.006	0.0769043	0.0489319
3.008	0.0128174	0.0482849
3.01	-0.164185	0.0495728
3.012	0.0610352	0.0500244
3.014	0.111084	0.0508545
3.016	0.112915	0.0515198
3.018	-0.0976563	0.0518982
3.02	-0.0836182	0.0527039
3.022	-0.0177002	0.0521851
3.024	0.0201416	0.0515808
3.026	0.0201416	0.0513733
3.028	0.0610352	0.0511597
3.03	-0.0927734	0.0511475
3.032	0.00915527	0.0512146
3.034	-0.0787354	0.0517639
3.036	-0.109863	0.0527832
3.038	0.108032	0.0534485
3.04	-0.0158691	0.0532837
3.042	0.0671387	0.0532593
3.044	0.112305	0.0540161
3.046	-0.0726318	0.054126
3.048	-0.0964355	0.0548096
3.05	0.0360107	0.0551575
3.052	0.158081	0.056488
3.054	-0.0732422	0.0569336
3.056	-0.0366211	0.0571228
3.058	-0.0689697	0.0575745
3.06	-0.0115967	0.0561646
3.062	0.0866699	0.0569519
3.064	-0.00732422	0.0557251
3.066	0.00183105	0.0556152
3.068	0.010376	0.055542
3.07	-0.0469971	0.0556946
3.072	0.00915527	0.0551636
3.074	0.00488281	0.0540771
3.076	-0.0274658	0.0531982
3.078	-0.103149	0.0541016
3.08	0.0915527	0.0547913
3.082	-0.0164795	0.0547546
3.084	-0.0262451	0.0548767
3.086	0.0860596	0.0550476
3.088	0.0506592	0.0553894
3.09	-0.13916	0.0553772
3.092	0.0756836	0.0556824
3.094	0.13916	0.0564575
3.096	-0.161133	0.057489
3.098	-0.0915527	0.0583557
3.1	0.111084	0.0589661
3.102	-0.0384521	0.0590759
3.104	0.0299072	0.0585999
3.106	-0.0921631	0.0593994
3.108	-0.043335	0.059668
3.11	0.078125	0.0603882
3.112	0.105591	0.0603943
3.114	-0.0488281	0.060614
3.116	0.00976563	0.060199
3.118	0.0219727	0.0603638
3.12	-0.0012207	0.0602539
3.122	0.0506592	0.0605835
3.124	-0.0201416	0.0607605
3.126	-0.10437	0.0616211
3.128	0.0402832	0.0613403
3.13	-0.0299072	0.0604492
3.132	-0.012207	0.0600342
3.134	-0.0561523	0.0601135
3.136	-0.00610352	0.0599792
3.138	0.0457764	0.0594666
3.14	0.00732422	0.0595276
3.142	-0.0756836	0.0596252
3.144	0.00976563	0.0591858
3.146	0.12207	0.0604004
3.148	0.0939941	0.0607483
3.15	-0.0292969	0.0605164
3.152	-0.126953	0.0609497
3.154	0.00244141	0.0598877
3.156	0.0708008	0.059082
3.158	0.00976563	0.0586792
3.16	-0.020752	0.0574036
3.162	0.0201416	0.0574036
3.164	-0.0701904	0.0575684
3.166	-0.0231934	0.0574402
3.168	-0.0421143	0.0570374
3.17	-0.0238037	0.0572083
3.172	0.0469971	0.0571594
3.174	0.0640869	0.0576172
3.176	-0.0683594	0.0578369
3.178	0.0408936	0.0575867
3.18	0.0439453	0.0571655
3.182	-0.0982666	0.0579468
3.184	-0.212402	0.0594604
3.186	0.0518799	0.0596252
3.188	0.124512	0.0606995
3.19	0.131836	0.0617188
3.192	0.0341797	0.0614624
3.194	-0.0830078	0.0618591
3.196	-0.0958252	0.0622864
3.198	0.0012207	0.0615051
3.2	-0.0793457	0.061676
3.202	0.222778	0.0632507
3.204	0.0708008	0.063269
3.206	-0.127563	0.0637756
3.208	-0.0579834	0.0642273
3.21	-0.0549316	0.0631348
3.212	0.0518799	0.0630432
3.214	0.0360107	0.0622925
3.216	0.0183105	0.0613464
3.218	0.0390625	0.0607605
3.22	-0.000610352	0.0599304
3.222	-0.0469971	0.0602234
3.224	-0.00976563	0.0601196
3.226	-0.0109863	0.0600281
3.228	-0.0640869	0.0600586
3.23	-0.0488281	0.0596191
3.232	0.0445557	0.0599731
3.234	-0.012207	0.0593079
3.236	0.00854492	0.0582947
3.238	0.123291	0.0584473
3.24	0.000610352	0.0582947
3.242	-0.0378418	0.0580017
3.244	0.00671387	0.0569458
3.246	-0.0689697	0.0569092
3.248	-0.0115967	0.0560608
3.25	0.0476074	0.0561768
3.252	-0.0360107	0.0549561
3.254	-0.0360107	0.0545837
3.256	0.000610352	0.0542236
3.258	0.00976563	0.0536316
3.26	-0.00183105	0.0535339
3.262	-0.0115967	0.0527832
3.264	0.0360107	0.0530701
3.266	0.043335	0.0534851
3.268	0.0238037	0.0536194
3.27	-0.0115967	0.0532654
3.272	-0.0604248	0.0537781
3.274	-0.0653076	0.0543823
3.276	0.00366211	0.0541443
3.278	0.0201416	0.0533142
3.28	0.0158691	0.0525574
3.282	0.0250244	0.0526428
3.284	0.00915527	0.0524719
3.286	-0.00549316	0.0516663
3.288	0.0408936	0.0515686
3.29	-0.00610352	0.050238
3.292	-0.00305176	0.0495117
3.294	-0.022583	0.0483459
3.296	-0.0604248	0.0473389
3.298	0.0518799	0.0469421
3.3	0.0360107	0.0461914
3.302	-0.0500488	0.0463074
3.304	-0.0561523	0.0465698
3.306	-0.0134277	0.0457825
3.308	0.0183105	0.0455322
3.31	-0.0146484	0.0448975
3.312	0.0415039	0.0442566
3.314	0.0299072	0.0440674
3.316	0.0213623	0.0441833
3.318	-0.00488281	0.0440125
3.32	-0.00244141	0.0440247
3.322	0.0158691	0.0436768
3.324	-0.0579834	0.0440552
3.326	-0.0372314	0.0433838
3.328	-0.00671387	0.0430481
3.33	-0.0262451	0.0430115
3.332	-0.0128174	0.0430176
3.334	0.0262451	0.0427185
3.336	0.022583	0.0428833
3.338	-0.00488281	0.0424744
3.34	-0.0012207	0.0424133
3.342	0.0012207	0.0416687
3.344	0.0140381	0.0417114
3.346	0.0439453	0.0409302
3.348	0.0115967	0.0401062
3.35	-0.00488281	0.0398621
3.352	-0.0231934	0.0388245
3.354	-0.0189209	0.0389893
3.356	0.00793457	0.0383606
3.358	-0.0366211	0.0386292
3.36	-0.0152588	0.0385742
3.362	0.00305176	0.0384033
3.364	0	0.0377014
3.366	0.0268555	0.037738
3.368	0.0189209	0.0375061
3.37	0.00793457	0.0373474
3.372	0.000610352	0.0368835
3.374	-0.0195313	0.036438
3.376	-0.0152588	0.035907
3.378	-0.0115967	0.035614
3.38	-0.0128174	0.0353027
3.382	-0.0164795	0.0344849
3.384	0	0.0323608
3.386	-0.00305176	0.0318726
3.388	0.0109863	0.0307373
3.39	0.00549316	0.0294739
3.392	0.00976563	0.0292297
3.394	0.0402832	0.0288025
3.396	0.00915527	0.0279358
3.398	0.0012207	0.0279358
3.4	-0.0421143	0.0275635
3.402	-0.0372314	0.025708
3.404	0.0109863	0.0251099
3.406	-0.0250244	0.0240845
3.408	-0.00793457	0.023584
3.41	0.00610352	0.0230957
3.412	0.0140381	0.0227173
3.414	0.00183105	0.0223755
3.416	0.0189209	0.0223816
3.418	0	0.021991
3.42	-0.0128174	0.022113
3.422	0.0274658	0.0219177
3.424	0.0250244	0.0220703
3.426	-0.010376	0.0220642
3.428	-0.0317383	0.0217407
3.43	-0.00915527	0.021344
3.432	-0.00549316	0.0209534
3.434	0.0115967	0.0209473
3.436	-0.00793457	0.0209412
3.438	0.00671387	0.0197754
3.44	0.00671387	0.0198364
3.442	0.0177002	0.019635
3.444	-0.0109863	0.0196777
3.446	-0.00671387	0.0190552
3.448	-0.0164795	0.019104
3.45	-0.0262451	0.0188904
3.452	-0.0262451	0.0187927
3.454	0.0189209	0.0186218
3.456	-0.00427246	0.0186584
3.458	0.022583	0.0187866
3.46	0	0.0187683
3.462	0.012207	0.0187744
3.464	-0.0195313	0.0186096
3.466	-0.0012207	0.0181885
3.468	-0.000610352	0.0179565
3.47	0.0238037	0.0180786
3.472	0.00549316	0.0175293
3.474	-0.0115967	0.0169922
3.476	-0.00427246	0.0169983
3.478	0.0213623	0.0170105
3.48	-0.0134277	0.0169861
3.482	-0.0170898	0.0169067
3.484	0.0134277	0.0169495
3.486	-0.0146484	0.017041
3.488	-0.0177002	0.0168091
3.49	-0.0012207	0.0167603
3.492	-0.00366211	0.0167664
3.494	-0.00854492	0.016626
3.496	0.0469971	0.0164917
3.498	-0.00915527	0.0160645
3.5	-0.0164795	0.0158691
3.502	0.0506592	0.0158752
3.504	-0.00183105	0.015332
3.506	-0.0366211	0.015564
3.508	0.00488281	0.0154297
3.51	0.00671387	0.0153503
3.512	-0.0213623	0.0151489
3.514	0.0183105	0.015033
3.516	0.0476074	0.0152954
3.518	-0.0543213	0.0157898
3.52	-0.0323486	0.0160889
3.522	-0.00793457	0.0160095
3.524	-0.00305176	0.0154602
3.526	-0.0158691	0.0152466
3.528	-0.0140381	0.0153198
3.53	0.0158691	0.0152161
3.532	0.0292969	0.0153809
3.534	0.022583	0.0153442
3.536	-0.0109863	0.0152283
3.538	-0.0512695	0.0156921
3.54	0.00793457	0.0157593
3.542	0.0598145	0.0163452
3.544	0.0158691	0.0163635
3.546	-0.0292969	0.016217
3.548	0.0360107	0.0164612
3.55	0.0238037	0.0166504
3.552	-0.0262451	0.0166809
3.554	-0.0286865	0.0167786
3.556	-0.057373	0.0172729
3.558	-0.0238037	0.0171448
3.56	0.0109863	0.0171021
3.562	0.0360107	0.0174316
3.564	0.0390625	0.0178223
3.566	-0.00244141	0.0175781
3.568	-0.00305176	0.0174194
3.57	-0.00366211	0.0173767
3.572	-0.0537109	0.0179077
3.574	0.0335693	0.0180481
3.576	0.00976563	0.0179932
3.578	-0.00305176	0.0179077
3.58	0.010376	0.0178833
3.582	-0.022583	0.0179443
3.584	0.0256348	0.0182007
3.586	-0.0195313	0.0183655
3.588	0.00915527	0.0183472
3.59	-0.00671387	0.0183594
3.592	-0.0683594	0.0189453
3.594	-0.0189209	0.0187317
3.596	0.0152588	0.0187927
3.598	0.0439453	0.01922
3.6	0.0299072	0.0190979
3.602	0.0286865	0.0190125
3.604	-0.0286865	0.0191895
3.606	-0.0250244	0.0191895
3.608	0.00305176	0.0191406
3.61	0.00183105	0.0190979
3.612	0.0158691	0.0191162
3.614	-0.0146484	0.0192444
3.616	-0.00488281	0.019104
3.618	0.0256348	0.0193604
3.62	-0.022583	0.019458
3.622	-0.0317383	0.0195007
3.624	-0.0354004	0.0196045
3.626	-0.0158691	0.0196594
3.628	0.0457764	0.0197998
3.63	0.0170898	0.0198792
3.632	-0.00488281	0.019873
3.634	0.012207	0.0198792
3.636	-0.0262451	0.0200623
3.638	0.0311279	0.0203064
3.64	0.0164795	0.0204041
3.642	-0.0524902	0.020752
3.644	-0.0146484	0.0207886
3.646	-0.0244141	0.0209656
3.648	0.0750732	0.0215515
3.65	0.0463867	0.0217529
3.652	-0.0292969	0.0217834
3.654	-0.00549316	0.0216492
3.656	-0.00549316	0.0216614
3.658	0.00976563	0.0215332
3.66	-0.010376	0.021637
3.662	-0.0268555	0.0217834
3.664	-0.0268555	0.0218567
3.666	0.00671387	0.0219116
3.668	0.020752	0.022113
3.67	-0.0396729	0.0222717
3.672	-0.0378418	0.0225952
3.674	-0.00793457	0.0225586
3.676	0.0012207	0.0225281
3.678	0.0616455	0.0229309
3.68	0.0238037	0.0230347
3.682	0.00732422	0.022937
3.684	-0.0109863	0.0229126
3.686	-0.0256348	0.0230225
3.688	-0.0109863	0.0229553
3.69	0.022583	0.0231689
3.692	0.00793457	0.0232117
3.694	-0.0256348	0.0233826
3.696	-0.0653076	0.0235657
3.698	-0.0256348	0.0237305
3.7	0.0183105	0.0237488
3.702	0.0195313	0.0234375
3.704	0.0457764	0.023877
3.706	0.0128174	0.0236389
3.708	0.00549316	0.023645
3.71	-0.0244141	0.023822
3.712	0.0189209	0.0237976
3.714	0.0323486	0.023938
3.716	-0.00915527	0.0235535
3.718	-0.0366211	0.0233765
3.72	0.00915527	0.0231445
3.722	-0.0323486	0.0233887
3.724	-0.045166	0.0238098
3.726	0.00610352	0.0237122
3.728	0.0421143	0.0239929
3.73	0.0115967	0.0239502
3.732	-0.0195313	0.0238525
3.734	-0.00549316	0.0236816
3.736	0.0012207	0.023584
3.738	-0.00244141	0.0230957
3.74	0.010376	0.0231201
3.742	0.00610352	0.022583
3.744	0.0439453	0.0228638
3.746	-0.00488281	0.0226196
3.748	-0.0115967	0.0223755
3.75	-0.0238037	0.0223755
3.752	-0.0189209	0.0223022
3.754	-0.0305176	0.0223206
3.756	0.0195313	0.0219421
3.758	-0.0115967	0.0218201
3.76	0.00854492	0.0217957
3.762	-0.0195313	0.0216309
3.764	-0.00793457	0.0213196
3.766	-0.0256348	0.0215515
3.768	0.00427246	0.0215637
3.77	0.0244141	0.0217712
3.772	0.012207	0.0213562
3.774	0.0201416	0.0212219
3.776	0.00305176	0.0211548
3.778	0.0292969	0.0214172
3.78	0.0927734	0.0222412
3.782	-0.0177002	0.0221924
3.784	-0.100708	0.0229431
3.786	-0.0177002	0.0229248
3.788	-0.0238037	0.0230713
3.79	-0.0366211	0.0233704
3.792	0.00732422	0.02276
3.794	0.0152588	0.0227234
3.796	0.00427246	0.0226135
3.798	-0.0219727	0.0223938
3.8	-0.0268555	0.0223633
3.802	0.0341797	0.0224182
3.804	0.0415039	0.0225464
3.806	0.0469971	0.0227661
3.808	0.0286865	0.0230225
3.81	0.00305176	0.0230347
3.812	-0.0201416	0.0230774
3.814	-0.0439453	0.0233704
3.816	-0.0305176	0.0236267
3.818	-0.00671387	0.0234375
3.82	-0.0140381	0.0233521
3.822	-0.0231934	0.0232666
3.824	0.00488281	0.0229614
3.826	0.0146484	0.0229492
3.828	-0.0201416	0.0226929
3.83	-0.0469971	0.0229919
3.832	0.0354004	0.0232971
3.834	0.0408936	0.023584
3.836	0.0354004	0.0236755
3.838	0.0140381	0.0235046
3.84	-0.0128174	0.023468
3.842	0.0219727	0.0231628
3.844	0.00976563	0.023114
3.846	-0.0177002	0.0230469
3.848	-0.020752	0.0225037
3.85	-0.057373	0.0226135
3.852	0.0195313	0.0225159
3.854	-0.0396729	0.0228577
3.856	-0.0549316	0.0233521
3.858	-0.00244141	0.0232788
3.86	-0.00488281	0.0232239
3.862	0.0476074	0.0234314
3.864	-0.00366211	0.0231995
3.866	0.065918	0.0237915
3.868	0.0543213	0.0241272
3.87	0.0427246	0.0241577
3.872	-0.0189209	0.0239685
3.874	-0.0634766	0.0245239
3.876	-0.045166	0.0249634
3.878	-0.0714111	0.025061
3.88	0.0396729	0.0252197
3.882	-0.0183105	0.0253296
3.884	-0.00915527	0.0253113
3.886	-0.00183105	0.0250732
3.888	0.00610352	0.0250244
3.89	0.0317383	0.025116
3.892	0.0231934	0.0252686
3.894	0.0354004	0.0253662
3.896	0.00244141	0.0247375
3.898	-0.00671387	0.0245483
3.9	0.0012207	0.0243774
3.902	0.00854492	0.0242676
3.904	-0.0549316	0.0243591
3.906	-0.0543213	0.0247742
3.908	-0.0299072	0.0250183
3.91	0.0231934	0.0250061
3.912	0.057373	0.0253906
3.914	0.0360107	0.0254272
3.916	0.00183105	0.025354
3.918	0.00732422	0.025061
3.92	0.0146484	0.025116
3.922	-0.00488281	0.0248413
3.924	-0.0305176	0.0246948
3.926	-0.0238037	0.0248718
3.928	-0.0238037	0.0246887
3.93	-0.0231934	0.0248047
3.932	-0.0170898	0.0247803
3.934	0.0457764	0.0251831
3.936	0.0311279	0.0254822
3.938	0	0.0254578
3.94	0.0378418	0.0257324
3.942	0.00671387	0.0257385
3.944	-0.0128174	0.0254272
3.946	-0.010376	0.0254822
3.948	-0.0469971	0.0258362
3.95	0.0201416	0.0257996
3.952	0.00732422	0.0256836
3.954	-0.0567627	0.025946
3.956	0.0292969	0.0260437
3.958	-0.00305176	0.0259583
3.96	-0.0152588	0.0260254
3.962	-0.00732422	0.0259033
3.964	0.0366211	0.0261902
3.966	-0.012207	0.0260559
3.968	0.0396729	0.0264099
3.97	0.0012207	0.026178
3.972	0.0195313	0.0262512
3.974	-0.00915527	0.0261414
3.976	0.0012207	0.026123
3.978	-0.0408936	0.026239
3.98	-0.0115967	0.0254272
3.982	0.00915527	0.0253418
3.984	0.00915527	0.0244263
3.986	-0.0158691	0.024408
3.988	-0.0238037	0.024408
3.99	-0.00793457	0.0241211
3.992	-0.0384521	0.0244324
3.994	-0.0366211	0.024646
3.996	0.0378418	0.0249817
3.998	0.0622559	0.0253845
4	0.0280762	0.0253967
4.002	0.0366211	0.0254211
4.004	0.0531006	0.0255371
4.006	0.00610352	0.0251282
4.008	-0.0994873	0.0258362
4.01	-0.0305176	0.0261108
4.012	-0.0201416	0.0261108
4.014	-0.00488281	0.0257202
4.016	-0.00488281	0.0254639
4.018	-0.0585938	0.0259827
4.02	-0.0134277	0.0259766
4.022	0.0305176	0.0260498
4.024	0.0622559	0.0266235
4.026	-0.00244141	0.0265015
4.028	-0.00244141	0.0263245
4.03	0.0170898	0.0260254
4.032	0.0262451	0.0259338
4.034	0.03479	0.0258728
4.036	0.0170898	0.0256897
4.038	-0.0317383	0.0258667
4.04	-0.0628662	0.0263672
4.042	-0.043335	0.0265808
4.044	-0.0305176	0.0267883
4.046	-0.00244141	0.0266357
4.048	0.0469971	0.0268982
4.05	0.0390625	0.0267151
4.052	0.0286865	0.0268066
4.054	-0.0109863	0.0265198
4.056	0.00244141	0.0259949
4.058	-0.00915527	0.026062
4.06	-0.00427246	0.0260559
4.062	0.00244141	0.0256042
4.064	-0.00732422	0.0256409
4.066	-0.0579834	0.0255615
4.068	-0.0158691	0.025177
4.07	-0.0274658	0.0250244
4.072	0.0012207	0.0248474
4.074	0.0439453	0.0246521
4.076	-0.00244141	0.0242249
4.078	0.00183105	0.0235291
4.08	0.0134277	0.0232666
4.082	-0.0012207	0.0230957
4.084	0.00427246	0.0230469
4.086	-0.00244141	0.023053
4.088	0.0231934	0.0232239
4.09	0.00366211	0.0229431
4.092	0.0238037	0.0229492
4.094	-0.0195313	0.0227905
4.096	-0.0341797	0.0231079
4.098	-0.0335693	0.0233765
4.1	0.00366211	0.0234009
4.102	0.0219727	0.0235352
4.104	-0.00732422	0.0230591
4.106	0.0280762	0.0227966
4.108	-0.00976563	0.0225952
4.11	-0.0262451	0.0226257
4.112	0.00305176	0.0220825
4.114	-0.0134277	0.0218567
4.116	-0.00915527	0.0219299
4.118	0.0115967	0.0219727
4.12	-0.00488281	0.021875
4.122	-0.0286865	0.022113
4.124	0.00549316	0.0218628
4.126	0.0323486	0.0219482
4.128	-0.00610352	0.0217712
4.13	0.0415039	0.0219543
4.132	0.00854492	0.0218689
4.134	-0.0152588	0.0215637
4.136	0.00366211	0.0212891
4.138	-0.0158691	0.0214478
4.14	-0.0390625	0.02146
4.142	0.0335693	0.0217285
4.144	-0.0323486	0.0219238
4.146	0.000610352	0.0218262
4.148	-0.00427246	0.0213989
4.15	0.0152588	0.0213501
4.152	0.0152588	0.0214294
4.154	0.0219727	0.0210815
4.156	-0.0622559	0.0214111
4.158	-0.0415039	0.0217957
4.16	0.00915527	0.0217346
4.162	0.0231934	0.0218933
4.164	0.0231934	0.021759
4.166	0.010376	0.0217407
4.168	0.00183105	0.0213623
4.17	0.0128174	0.0214783
4.172	-0.0262451	0.0215454
4.174	-0.00732422	0.0215271
4.176	-0.00854492	0.0216003
4.178	0.022583	0.0214172
4.18	-0.0238037	0.0215393
4.182	-0.0152588	0.0216003
4.184	-0.0238037	0.0217468
4.186	0.012207	0.0217102
4.188	0.0231934	0.0217041
4.19	-0.0128174	0.0217529
4.192	0.0311279	0.0216797
4.194	0.0201416	0.0215149
4.196	-0.0183105	0.0213196
4.198	0.00671387	0.0207642
4.2	-0.0274658	0.0207581
4.202	-0.0494385	0.0208862
4.204	-0.00183105	0.0203735
4.206	-0.00366211	0.0203491
4.208	0.010376	0.019458
4.21	-0.00915527	0.0192444
4.212	-0.0195313	0.0192383
4.214	0	0.0191895
4.216	0.00610352	0.0192017
4.218	0.0604248	0.01922
4.22	-0.0164795	0.0192505
4.222	0.0231934	0.0191772
4.224	0.0238037	0.0187927
4.226	-0.00549316	0.0188232
4.228	0.00183105	0.0188171
4.23	-0.0286865	0.0189331
4.232	-0.0299072	0.0189697
4.234	-0.0158691	0.0187805
4.236	0	0.0186096
4.238	0.0244141	0.0185364
4.24	0.0195313	0.018103
4.242	-0.0195313	0.017865
4.244	-0.0256348	0.0178162
4.246	0.000610352	0.0177979
4.248	0.0164795	0.0174927
4.25	0.00305176	0.0171326
4.252	-0.00305176	0.0168762
4.254	-0.0421143	0.0171875
4.256	0.00549316	0.017218
4.258	0.022583	0.0173523
4.26	0.00915527	0.0174011
4.262	0.00427246	0.0174194
4.264	0.00244141	0.0173706
4.266	-0.0457764	0.0172485
4.268	0.00488281	0.0171387
4.27	0.0109863	0.0169739
4.272	-0.00366211	0.0169983
4.274	-0.00915527	0.0166504
4.276	0.0140381	0.0167664
4.278	0.00671387	0.0168152
4.28	-0.0134277	0.0168152
4.282	-0.0140381	0.0169434
4.284	0.0323486	0.0172241
4.286	0.00183105	0.017218
4.288	0.0115967	0.0171021
4.29	0.00854492	0.0171509
4.292	-0.0421143	0.017334
4.294	-0.0256348	0.017395
4.296	0.0183105	0.0172363
4.298	0.0219727	0.0171204
4.3	0.00976563	0.0171814
4.302	-0.0170898	0.0171326
4.304	-0.0213623	0.0172729
4.306	-0.0439453	0.0174316
4.308	0.0256348	0.0175903
4.31	0.0146484	0.0174744
4.312	0.045166	0.0178955
4.314	-0.010376	0.017865
4.316	-0.0427246	0.0182007
4.318	0.0164795	0.0182495
4.32	-0.010376	0.0183044
4.322	0.0146484	0.0181641
4.324	0.00366211	0.0181458
4.326	0.00305176	0.0178528
4.328	0.00854492	0.0178772
4.33	-0.00427246	0.0175049
4.332	-0.0219727	0.0176392
4.334	0.00976563	0.0175842
4.336	0.00366211	0.0175842
4.338	-0.00671387	0.0174927
4.34	-0.0305176	0.0174072
4.342	-0.0152588	0.0172241
4.344	-0.00244141	0.016925
4.346	0.0189209	0.0171082
4.348	-0.012207	0.0171875
4.35	0.0219727	0.0172546
4.352	-0.00244141	0.0171265
4.354	0.00732422	0.01698
4.356	-0.0115967	0.0164734
4.358	0.0128174	0.0161865
4.36	0.010376	0.0161987
4.362	-0.00732422	0.01604
4.364	-0.0213623	0.0160217
4.366	-0.00305176	0.0159485
4.368	-0.00183105	0.0159485
4.37	-0.010376	0.0159241
4.372	-0.00610352	0.0157227
4.374	0.0372314	0.0160217
4.376	-0.0195313	0.0161316
4.378	-0.0213623	0.0161194
4.38	0.0012207	0.0158936
4.382	0.00488281	0.0157898
4.384	0.0201416	0.0157532
4.386	-0.0140381	0.0157715
4.388	-0.0311279	0.0158508
4.39	0.0421143	0.0161438
4.392	-0.0402832	0.0162354
4.394	-0.00244141	0.0160583
4.396	0.00366211	0.0159119
4.398	0.0170898	0.0160156
4.4	0.00793457	0.0158203
4.402	0.0146484	0.0154724
4.404	0.00244141	0.0154785
4.406	0.00915527	0.0155334
4.408	-0.0213623	0.0156433
4.41	0.00976563	0.0156494
4.412	0.00488281	0.0155029
4.414	-0.0128174	0.0156311
4.416	-0.022583	0.0157959
4.418	-0.00610352	0.0152527
4.42	-0.000610352	0.015094
4.422	0.000610352	0.0148682
4.424	-0.000610352	0.0146362
4.426	-0.00305176	0.0146118
4.428	-0.0238037	0.0148315
4.43	0.0012207	0.0145569
4.432	-0.0158691	0.0144165
4.434	0.0384521	0.0146423
4.436	0.00427246	0.0146851
4.438	0.0421143	0.0148621
4.44	-0.0128174	0.0147949
4.442	-0.0292969	0.0148926
4.444	0.0152588	0.0147888
4.446	0.00610352	0.0148437
4.448	-0.0164795	0.0148437
4.45	-0.0140381	0.0149536
4.452	0.00305176	0.0149536
4.454	-0.0244141	0.0147766
4.456	0.00183105	0.01474
4.458	-0.00732422	0.0145874
4.46	-0.00488281	0.0145447
4.462	0.00976563	0.0145996
4.464	0.0488281	0.0150635
4.466	-0.00915527	0.0146973
4.468	-0.043335	0.0150818
4.47	-0.0164795	0.0151367
4.472	-0.00793457	0.0151794
4.474	-0.0213623	0.0153015
4.476	0	0.0151611
4.478	0.0170898	0.0152649
4.48	0.0109863	0.0152405
4.482	0.0292969	0.0153931
4.484	-0.00671387	0.0151367
4.486	-0.0012207	0.0151306
4.488	0.000610352	0.0150208
4.49	-0.0115967	0.0150513
4.492	0.022583	0.014856
4.494	0.00427246	0.0146423
4.496	0.00671387	0.0145264
4.498	-0.0189209	0.0144958
4.5	-0.00488281	0.014447
4.502	-0.00427246	0.0143188
4.504	-0.0189209	0.0142944
4.506	-0.0219727	0.0140747
4.508	-0.000610352	0.0138245
4.51	0.00427246	0.0137207
4.512	-0.00671387	0.0133362
4.514	0.00183105	0.0132507
4.516	0.00671387	0.0128906
4.518	0.0286865	0.0130127
4.52	0.00427246	0.0129517
4.522	0.0244141	0.0130493
4.524	-0.0250244	0.0132629
4.526	-0.00854492	0.0133179
4.528	-0.032959	0.013562
4.53	-0.00366211	0.0135559
4.532	0.0128174	0.0134644
4.534	0.0012207	0.0133789
4.536	-0.00732422	0.0134155
4.538	-0.00793457	0.0134277
4.54	-0.0189209	0.0133118
4.542	-0.0286865	0.013446
4.544	0.0146484	0.0135681
4.546	0.022583	0.0136047
4.548	0.0384521	0.0138672
4.55	0.0140381	0.0137878
4.552	0.0158691	0.0139221
4.554	-0.0439453	0.0142883
4.556	-0.0280762	0.0144531
4.558	0.0158691	0.0144836
4.56	-0.0213623	0.0145935
4.562	0.0317383	0.0148376
4.564	0.00366211	0.0146606
4.566	-0.00549316	0.0146851
4.568	-0.00549316	0.0147217
4.57	-0.032959	0.0149475
4.572	-0.00610352	0.0149475
4.574	-0.00427246	0.0146179
4.576	0.00244141	0.014447
4.578	0	0.0142334
4.58	0.00732422	0.0142944
4.582	0.0170898	0.0144165
4.584	-0.0213623	0.0144287
4.586	0.0219727	0.0145081
4.588	0.0152588	0.0143494
4.59	0.00305176	0.0139587
4.592	0.00915527	0.0136475
4.594	0.0128174	0.0137512
4.596	-0.067749	0.0143921
4.598	-0.020752	0.0144287
4.6	-0.0128174	0.0144775
4.602	0.00732422	0.0144043
4.604	-0.00488281	0.0144287
4.606	0.0219727	0.0145569
4.608	-0.0012207	0.0143555
4.61	0.0567627	0.0148254
4.612	-0.0128174	0.0149048
4.614	-0.00793457	0.014856
4.616	0.0177002	0.0148071
4.618	0.00427246	0.0147888
4.62	-0.0292969	0.0150757
4.622	0.012207	0.0151917
4.624	-0.0299072	0.0154846
4.626	-0.0256348	0.0157104
4.628	-0.0244141	0.0157166
4.63	0.00610352	0.0157654
4.632	0.0341797	0.0159485
4.634	0.0146484	0.0157104
4.636	-0.012207	0.0157898
4.638	0.000610352	0.0153748
4.64	-0.00610352	0.0153076
4.642	-0.00244141	0.0150391
4.644	0.0299072	0.0151855
4.646	0.000610352	0.0151306
4.648	-0.010376	0.0150696
4.65	-0.00305176	0.0149597
4.652	-0.00976563	0.0150269
4.654	0.00488281	0.0148315
4.656	-0.00427246	0.014856
4.658	-0.0177002	0.0149597
4.66	-0.010376	0.0150146
4.662	-0.00610352	0.014978
4.664	-0.000610352	0.0144958
4.666	-0.00671387	0.0144714
4.668	0.0152588	0.0141907
4.67	0.0299072	0.014325
4.672	0.0164795	0.0144104
4.674	-0.00183105	0.0142151
4.676	-0.0152588	0.0143677
4.678	-0.00488281	0.0142456
4.68	-0.000610352	0.0141418
4.682	-0.012207	0.0139709
4.684	0.0115967	0.0140198
4.686	-0.020752	0.0142151
4.688	-0.0140381	0.0143494
4.69	-0.0183105	0.0144165
4.692	-0.0219727	0.0144104
4.694	-0.00183105	0.014386
4.696	0.0366211	0.0146851
4.698	0.0524902	0.0150208
4.7	0.0256348	0.0152283
4.702	-0.020752	0.0153931
4.704	-0.0585938	0.0157898
4.706	-0.00976563	0.0156677
4.708	-0.0012207	0.0156738
4.71	0.0109863	0.015741
4.712	0.00427246	0.0157166
4.714	-0.0323486	0.0160217
4.716	0.0439453	0.016394
4.718	-0.0158691	0.0162659
4.72	0.00427246	0.0162659
4.722	0.00244141	0.0160461
4.724	0.00183105	0.0158142
4.726	-0.00183105	0.0157471
4.728	-0.00366211	0.0154541
4.73	0.0177002	0.0155945
4.732	-0.00549316	0.0155212
4.734	-0.0152588	0.0156616
4.736	-0.0146484	0.0157349
4.738	-0.000610352	0.0156616
4.74	0.0201416	0.0156738
4.742	0.0189209	0.0155762
4.744	-0.0164795	0.0155945
4.746	0.00366211	0.0154053
4.748	0.00610352	0.0150818
4.75	0.00549316	0.0149963
4.752	-0.0152588	0.0149902
4.754	0.00427246	0.0145935
4.756	-0.0177002	0.0144897
4.758	-0.0134277	0.0144653
4.76	0.00915527	0.0143433
4.762	0.0128174	0.0141541
4.764	0	0.0141174
4.766	0.00549316	0.0141174
4.768	-0.020752	0.01427
4.77	-0.0390625	0.0143311
4.772	-0.0152588	0.0144226
4.774	0.00183105	0.0143982
4.776	0.0231934	0.0146057
4.778	0.0152588	0.0147583
4.78	0.010376	0.0147888
4.782	0.00549316	0.0146729
4.784	0.0146484	0.0146057
4.786	0.00183105	0.0144043
4.788	-0.00793457	0.0143311
4.79	-0.0292969	0.0145935
4.792	-0.00183105	0.0145203
4.794	-0.0146484	0.0145386
4.796	-0.00976563	0.0139587
4.798	-0.000610352	0.0137573
4.8	-0.0286865	0.013916
4.802	-0.00671387	0.0139099
4.804	-0.0128174	0.0139893
4.806	0.020752	0.0139771
4.808	0.0128174	0.014093
4.81	0.045166	0.0139771
4.812	0.043335	0.0142822
4.814	-0.0115967	0.0143188
4.816	-0.0299072	0.0144409
4.818	-0.0311279	0.0147095
4.82	-0.00915527	0.0145081
4.822	-0.0195313	0.0145813
4.824	-0.0183105	0.0144653
4.826	0.0341797	0.0145508
4.828	-0.0146484	0.0144531
4.83	0.00610352	0.0144531
4.832	-0.000610352	0.0141174
4.834	-0.00366211	0.0140076
4.836	0.0268555	0.0141541
4.838	-0.0170898	0.0143188
4.84	-0.00427246	0.0143005
4.842	-0.00305176	0.0143066
4.844	0.0170898	0.0141785
4.846	0.0177002	0.0143494
4.848	-0.00305176	0.0142761
4.85	-0.0140381	0.014386
4.852	-0.03479	0.0146362
4.854	-0.0311279	0.0148987
4.856	0.0317383	0.0151733
4.858	0.0256348	0.0152527
4.86	-0.0134277	0.0152832
4.862	0	0.0152222
4.864	0.0183105	0.0153992
4.866	0.0244141	0.0155762
4.868	-0.0134277	0.0155579
4.87	-0.0335693	0.0155945
4.872	-0.0177002	0.0156067
4.874	0.0183105	0.0157715
4.876	0.0012207	0.0156311
4.878	0.00366211	0.0156189
4.88	-0.0256348	0.0158691
4.882	0.0115967	0.015863
4.884	-0.0183105	0.0159302
4.886	-0.00549316	0.0157776
4.888	0.00732422	0.0157104
4.89	-0.0140381	0.0156677
4.892	0.0140381	0.0155884
4.894	0	0.0155701
4.896	-0.00793457	0.0152832
4.898	0.0231934	0.0149902
4.9	0.0268555	0.0150024
4.902	-0.0238037	0.015033
4.904	-0.010376	0.0145508
4.906	-0.0244141	0.0146973
4.908	0.012207	0.0148071
4.91	0.00366211	0.0147339
4.912	-0.00610352	0.0147522
4.914	-0.00793457	0.0145081
4.916	0.00793457	0.0141479
4.918	0.0146484	0.0141357
4.92	-0.010376	0.0141968
4.922	0.00305176	0.0142029
4.924	0.0219727	0.0144043
4.926	-0.0183105	0.0145691
4.928	-0.0201416	0.0147339
4.93	-0.020752	0.0147644
4.932	0.0579834	0.0152893
4.934	-0.0262451	0.0153992
4.936	-0.0274658	0.0155273
4.938	-0.000610352	0.0155273
4.94	-0.0354004	0.0156799
4.942	-0.00610352	0.0155518
4.944	0.0256348	0.0156433
4.946	0.012207	0.0157288
4.948	0.0280762	0.0159485
4.95	0.0213623	0.0161072
4.952	-0.00854492	0.01604
4.954	-0.00976563	0.016095
4.956	0.00488281	0.0159668
4.958	0.00854492	0.015918
4.96	-0.010376	0.0159302
4.962	-0.0177002	0.015979
4.964	-0.0372314	0.0163513
4.966	-0.0134277	0.0164307
4.968	-0.00305176	0.0162537
4.97	0.0201416	0.0160645
4.972	-0.00244141	0.0159363
4.974	0.0146484	0.0160645
4.976	-0.00488281	0.0158813
4.978	0.0115967	0.0158447
4.98	-0.00854492	0.0158264
4.982	0.00427246	0.0158142
4.984	0.00854492	0.0157532
4.986	-0.0146484	0.0158813
4.988	-0.0170898	0.0159729
4.99	0.0140381	0.0158203
4.992	0.00366211	0.0158386
4.994	-0.00671387	0.0157593
4.996	-0.0189209	0.0158508
4.998	-0.0146484	0.0159912
5	0.00366211	0.015741
5.002	0.022583	0.0158997
5.004	-0.00671387	0.0158386
5.006	0.000610352	0.0156372
5.008	-0.00183105	0.0155273
5.01	-0.00976563	0.0151733
5.012	-0.0146484	0.0148865
5.014	-0.022583	0.0149963
5.016	0.0665283	0.0153625
5.018	-0.012207	0.0151733
5.02	-0.0183105	0.0152649
5.022	0.0268555	0.0153381
5.024	-0.0170898	0.0153259
5.026	0.00427246	0.0150269
5.028	0.0128174	0.0150085
5.03	-0.0286865	0.0152344
5.032	-0.0213623	0.0154419
5.034	0.0421143	0.0158264
5.036	0.0146484	0.0157043
5.038	-0.020752	0.015741
5.04	-0.0134277	0.0158325
5.042	-0.0256348	0.0160583
5.044	-0.0115967	0.0160034
5.046	0.0158691	0.0159851
5.048	0.00976563	0.0160522
5.05	-0.0274658	0.0161865
5.052	0.0189209	0.0160278
5.054	-0.00793457	0.0157959
5.056	-0.0140381	0.0156189
5.058	0.0140381	0.0155029
5.06	-0.0219727	0.0155884
5.062	0.0201416	0.0157898
5.064	0.0244141	0.0158508
5.066	0.0115967	0.0157227
5.068	-0.00793457	0.0156677
5.07	0.0152588	0.0154846
5.072	0.00976563	0.0154053
5.074	-0.0183105	0.0154053
5.076	-0.0250244	0.0156433
5.078	-0.0195313	0.015802
5.08	-0.0268555	0.0158142
5.082	0.0231934	0.0159302
5.084	-0.00793457	0.0158264
5.086	0.00671387	0.0158386
5.088	0.00915527	0.0158569
5.09	-0.0115967	0.0158325
5.092	-0.00366211	0.0157288
5.094	0.0146484	0.0158752
5.096	0.00244141	0.0158203
5.098	-0.0134277	0.0157227
5.1	0.0177002	0.0156311
5.102	0.00793457	0.0154724
5.104	-0.00549316	0.0154236
5.106	-0.032959	0.015509
5.108	-0.0354004	0.015741
5.11	-0.0189209	0.0158936
5.112	0.0384521	0.016217
5.114	0.0244141	0.0163818
5.116	0	0.0163025
5.118	-0.00793457	0.0162354
5.12	0	0.0161316
5.122	0.00610352	0.0161621
5.124	0.00671387	0.0160095
5.126	-0.00305176	0.0158569
5.128	-0.0213623	0.0158691
5.13	-0.010376	0.0157654
5.132	-0.00671387	0.0152527
5.134	0.0280762	0.015271
5.136	-0.00244141	0.0150208
5.138	-0.0201416	0.0152161
5.14	-0.00305176	0.0148926
5.142	0.0231934	0.0150635
5.144	0.00549316	0.0148621
5.146	0	0.01474
5.148	0.010376	0.014563
5.15	-0.0238037	0.0145874
5.152	-0.0250244	0.0147522
5.154	-0.0152588	0.0148071
5.156	0.0115967	0.0148743
5.158	0.0152588	0.0149414
5.16	0.00610352	0.0148987
5.162	0.0231934	0.0149536
5.164	-0.00854492	0.0146667
5.166	-0.0177002	0.0147095
5.168	-0.00671387	0.0147461
5.17	-0.00427246	0.0145874
5.172	0.012207	0.0146851
5.174	0.00610352	0.0145996
5.176	-0.00366211	0.0145874
5.178	-0.0512695	0.0149841
5.18	-0.0286865	0.0151855
5.182	0.020752	0.0153503
5.184	0.0341797	0.0156067
5.186	0.0201416	0.0156616
5.188	0.00366211	0.0155273
5.19	0.000610352	0.0153931
5.192	-0.00610352	0.0154175
5.194	-0.0012207	0.0153625
5.196	-0.00183105	0.0151917
5.198	-0.00610352	0.0151062
5.2	-0.0244141	0.0153137
5.202	-0.00427246	0.0151306
5.204	-0.00488281	0.0151123
5.206	0.0128174	0.0152344
5.208	0	0.0152161
5.21	-0.00732422	0.0151917
5.212	0.012207	0.0151672
5.214	0.0231934	0.0151733
5.216	-0.0323486	0.0148315
5.218	-0.0012207	0.0147217
5.22	-0.0134277	0.0146729
5.222	0.00976563	0.014502
5.224	-0.0213623	0.0145447
5.226	0.0012207	0.0145142
5.228	0.0354004	0.01474
5.23	-0.0140381	0.0145935
5.232	0.0366211	0.0147461
5.234	-0.0219727	0.0145447
5.236	-0.0115967	0.0145142
5.238	-0.00183105	0.014325
5.24	-0.00488281	0.0142395
5.242	-0.0012207	0.0139954
5.244	-0.0152588	0.014032
5.246	-0.000610352	0.0138794
5.248	-0.0195313	0.0139771
5.25	-0.00488281	0.0137512
5.252	-0.000610352	0.0135681
5.254	0.0158691	0.0136475
5.256	0.00671387	0.0135742
5.258	0.0567627	0.0140015
5.26	-0.0128174	0.0139099
5.262	0.00549316	0.0137634
5.264	-0.0164795	0.0136841
5.266	-0.0170898	0.013739
5.268	-0.00854492	0.0137451
5.27	-0.020752	0.0138
5.272	-0.0268555	0.0139709
5.274	0.00671387	0.013855
5.276	0.0402832	0.0140076
5.278	0.0115967	0.0139282
5.28	-0.022583	0.0138855
5.282	-0.0152588	0.0138062
5.284	0.000610352	0.0137329
5.286	0.022583	0.0138916
5.288	-0.0012207	0.0138123
5.29	0.00549316	0.0137512
5.292	-0.00671387	0.0137817
5.294	-0.0152588	0.0137878
5.296	-0.000610352	0.0137695
5.298	0.00305176	0.0136658
5.3	0.00793457	0.0135681
5.302	-0.00244141	0.0135132
5.304	0.00915527	0.0135498
5.306	-0.0201416	0.0134216
5.308	-0.0219727	0.0132874
5.31	0.00610352	0.0131592
5.312	-0.0115967	0.0128906
5.314	-0.00976563	0.0127441
5.316	0.012207	0.0128662
5.318	-0.0158691	0.0129456
5.32	0.0158691	0.0131042
5.322	-0.00671387	0.0131104
5.324	0.0189209	0.0132324
5.326	0.0219727	0.0134216
5.328	0.0250244	0.0134583
5.33	0.0195313	0.0135498
5.332	-0.0274658	0.0137573
5.334	-0.0469971	0.0139465
5.336	-0.0378418	0.0143005
5.338	0.0170898	0.01427
5.34	0.0115967	0.0143555
5.342	0.012207	0.0142456
5.344	-0.0164795	0.0143555
5.346	-0.0012207	0.0143677
5.348	-0.00488281	0.0143127
5.35	0.00183105	0.014093
5.352	-0.00671387	0.0139099
5.354	0.00366211	0.0137939
5.356	0.0421143	0.0140991
5.358	-0.0128174	0.0140747
5.36	-0.00305176	0.0140442
5.362	0.0140381	0.0139526
5.364	-0.00854492	0.0139526
5.366	-0.0012207	0.0137878
5.368	-0.00488281	0.0137695
5.37	-0.00915527	0.0138184
5.372	0.00976563	0.0137939
5.374	0.0158691	0.0138916
5.376	-0.0109863	0.0139648
5.378	-0.0128174	0.0135803
5.38	-0.0262451	0.0135559
5.382	-0.00976563	0.013446
5.384	0.00854492	0.0131897
5.386	-0.00305176	0.0130188
5.388	-0.00732422	0.0130554
5.39	0.00671387	0.0131165
5.392	0.00183105	0.0130737
5.394	0.00793457	0.0131409
5.396	-0.000610352	0.0131287
5.398	0.000610352	0.0130737
5.4	-0.00366211	0.0128662
5.402	0.00671387	0.0128906
5.404	-0.0256348	0.0130981
5.406	0.00610352	0.013031
5.408	0.00549316	0.0130859
5.41	-0.0299072	0.0133118
5.412	0.0463867	0.0136536
5.414	0.00915527	0.0135132
5.416	-0.0268555	0.0134583
5.418	-0.000610352	0.0134521
5.42	-0.00915527	0.0134094
5.422	-0.00915527	0.0134033
5.424	0.00915527	0.0132813
5.426	0.0012207	0.0132813
5.428	-0.00244141	0.0129517
5.43	-0.00793457	0.0128906
5.432	-0.0012207	0.0125366
5.434	0.010376	0.0124207
5.436	-0.0219727	0.0125244
5.438	-0.0128174	0.0126343
5.44	0.0140381	0.0127258
5.442	0.0256348	0.01297
5.444	-0.0238037	0.0130554
5.446	-0.00610352	0.0131104
5.448	0.00793457	0.0129944
5.45	0.0128174	0.0130737
5.452	-0.0256348	0.013324
5.454	-0.0109863	0.0132751
5.456	0.022583	0.0134338
5.458	-0.00915527	0.0129578
5.46	-0.0189209	0.0130188
5.462	0.0183105	0.013147
5.464	0.0183105	0.0131653
5.466	-0.00183105	0.0130127
5.468	0.00793457	0.0130066
5.47	-0.00671387	0.0128662
5.472	-0.0183105	0.0127808
5.474	-0.0146484	0.0128601
5.476	0.00610352	0.0125183
5.478	0.00854492	0.0124878
5.48	-0.00610352	0.012323
5.482	-0.00854492	0.0122559
5.484	0.00183105	0.0122681
5.486	-0.00549316	0.0120972
5.488	-0.00183105	0.0121033
5.49	0	0.0120483
5.492	-0.00488281	0.01203
5.494	-0.00732422	0.0119507
5.496	-0.010376	0.0120483
5.498	0.012207	0.0121399
5.5	0.00427246	0.0121033
5.502	-0.00732422	0.0121521
5.504	0.0146484	0.012207
5.506	-0.00183105	0.0120239
5.508	-0.00305176	0.0118347
5.51	0.00305176	0.0118042
5.512	-0.00183105	0.0117065
5.514	0	0.0116089
5.516	-0.0262451	0.0117493
5.518	0.0109863	0.0117004
5.52	0.00732422	0.011615
5.522	0.00915527	0.0116394
5.524	0.0012207	0.0114624
5.526	-0.0140381	0.0113831
5.528	0.010376	0.0112366
5.53	-0.00366211	0.0110779
5.532	-0.00793457	0.0108826
5.534	0.0109863	0.0105225
5.536	0.0012207	0.0101563
5.538	0.00427246	0.0100281
5.54	0.00793457	0.00999146
5.542	-0.0238037	0.0101074
5.544	-0.0177002	0.0101196
5.546	-0.0268555	0.010376
5.548	0.00976563	0.0104248
5.55	0.0134277	0.0105408
5.552	0.0231934	0.0107056
5.554	0.00610352	0.01073
5.556	-0.0158691	0.0104675
5.558	-0.00610352	0.0104004
5.56	0.00671387	0.010437
5.562	0.0146484	0.0104431
5.564	-0.00793457	0.010437
5.566	0.00976563	0.0105225
5.568	0.00488281	0.0105225
5.57	-0.00549316	0.0104858
5.572	-0.00305176	0.0104187
5.574	-0.022583	0.0104858
5.576	-0.00427246	0.0104187
5.578	0.022583	0.0105164
5.58	-0.00366211	0.0102905
5.582	-0.0152588	0.0103455
5.584	-0.0134277	0.0103943
5.586	0.0109863	0.0104736
5.588	0.00427246	0.0104431
5.59	0.012207	0.010498
5.592	-0.00854492	0.0105652
5.594	-0.0292969	0.0107788
5.596	0.0012207	0.0107849
5.598	-0.00244141	0.0108032
5.6	-0.00610352	0.0108276
5.602	0.00915527	0.0108521
5.604	0.0177002	0.0107727
5.606	0.00305176	0.0107422
5.608	-0.00732422	0.0107605
5.61	-0.00793457	0.0105408
5.612	-0.00488281	0.0101257
5.614	-0.00793457	0.0101135
5.616	0.0201416	0.0100464
5.618	-0.00671387	0.0101074
5.62	-0.0274658	0.0102905
5.622	0.0164795	0.0103638
5.624	0.0152588	0.0104248
5.626	0.00183105	0.0104309
5.628	0.00244141	0.0104309
5.63	-0.00366211	0.0103882
5.632	-0.00366211	0.0104126
5.634	0	0.0103088
5.636	-0.00305176	0.0101196
5.638	0.00915527	0.010083
5.64	0.000610352	0.00994873
5.642	-0.0115967	0.00980835
5.644	-0.0195313	0.00976563
5.646	-0.0238037	0.00994263
5.648	0.0177002	0.0100403
5.65	0.00793457	0.00999146
5.652	-0.0146484	0.00988159
5.654	0.0152588	0.00992432
5.656	0.00427246	0.00974121
5.658	-0.00915527	0.00974121
5.66	-0.0170898	0.0097229
5.662	-0.00366211	0.00957642
5.664	0.0219727	0.00961304
5.666	-0.010376	0.00969849
5.668	0.0140381	0.00975952
5.67	0.012207	0.00981445
5.672	0.00305176	0.00966187
5.674	0.00976563	0.00961304
5.676	0.000610352	0.00955811
5.678	-0.0146484	0.00961914
5.68	-0.00793457	0.00963745
5.682	-0.0390625	0.00994263
5.684	-0.00183105	0.00994263
5.686	-0.0128174	0.0100159
5.688	-0.00183105	0.0100159
5.69	0	0.0100159
5.692	-0.00671387	0.0100342
5.694	-0.00549316	0.0100159
5.696	0.00183105	0.00993042
5.698	0.0793457	0.0106018
5.7	-0.0128174	0.0106873
5.702	0.010376	0.0107178
5.704	0.0201416	0.0107727
5.706	-0.0292969	0.0110474
5.708	0.00488281	0.0110657
5.71	0.00732422	0.0111084
5.712	-0.0231934	0.011322
5.714	-0.010376	0.0114258
5.716	-0.0274658	0.011438
5.718	0.00366211	0.0113647
5.72	-0.00793457	0.0113708
5.722	-0.00610352	0.0113403
5.724	0.0183105	0.0115112
5.726	0.00244141	0.0113953
5.728	-0.00976563	0.0113892
5.73	-0.00244141	0.011377
5.732	-0.00183105	0.0113159
5.734	0.00244141	0.0112305
5.736	0.00671387	0.0112854
5.738	0.0140381	0.0113831
5.74	-0.0128174	0.0114319
5.742	0.0146484	0.0113403
5.744	0	0.0111633
5.746	0.0012207	0.010907
5.748	-0.0012207	0.0108215
5.75	-0.00732422	0.0107605
5.752	-0.0115967	0.0106445
5.754	-0.0244141	0.0108276
5.756	0.00488281	0.0107178
5.758	-0.00488281	0.0107056
5.76	-0.00732422	0.0107117
5.762	0.0128174	0.0106934
5.764	0.0262451	0.0108765
5.766	-0.00976563	0.0108765
5.768	-0.0164795	0.0109924
5.77	-0.00244141	0.0109619
5.772	0.00610352	0.0109924
5.774	0.00366211	0.0108032
5.776	0.012207	0.0108826
5.778	0.00488281	0.0107056
5.78	-0.00610352	0.01073
5.782	-0.00305176	0.0106079
5.784	0.00732422	0.0105469
5.786	-0.00854492	0.0105225
5.788	-0.0134277	0.010614
5.79	-0.00366211	0.0105286
5.792	0.0012207	0.0104553
5.794	-0.00305176	0.0101929
5.796	-0.0152588	0.0103333
5.798	-0.0109863	0.0104187
5.8	0.000610352	0.0103638
5.802	-0.00305176	0.0103027
5.804	0.00366211	0.0101624
5.806	-0.00244141	0.0101563
5.808	0.0152588	0.0102356
5.81	0.0109863	0.0102661
5.812	0.000610352	0.0102234
5.814	-0.00488281	0.0101929
5.816	0.0299072	0.0102905
5.818	-0.0354004	0.0105774
5.82	-0.0152588	0.0104553
5.822	0.00549316	0.0103455
5.824	-0.00488281	0.0102417
5.826	-0.00976563	0.010321
5.828	0.00183105	0.0103149
5.83	0.00854492	0.0103638
5.832	0.00488281	0.010376
5.834	-0.00976563	0.0104736
5.836	0.0012207	0.0104553
5.838	0.0244141	0.0106079
5.84	-0.012207	0.0107239
5.842	-0.0164795	0.0107727
5.844	-0.00427246	0.0106201
5.846	-0.00488281	0.0104309
5.848	-0.00488281	0.0103027
5.85	-0.012207	0.0103455
5.852	0.0109863	0.0103088
5.854	0.00183105	0.0101746
5.856	0.00610352	0.0101929
5.858	0.00366211	0.0101379
5.86	0.00671387	0.0100342
5.862	0.000610352	0.0100037
5.864	-0.00244141	0.00980835
5.866	-0.00183105	0.0097229
5.868	-0.00610352	0.00964355
5.87	0.00793457	0.00960083
5.872	-0.00732422	0.00964355
5.874	-0.000610352	0.009552
5.876	0.00366211	0.00958252
5.878	0.00427246	0.00947876
5.88	-0.00915527	0.00949097
5.882	-0.0238037	0.00933838
5.884	0.0140381	0.00946045
5.886	0.00976563	0.00942993
5.888	0.00976563	0.00950928
5.89	-0.0201416	0.00971069
5.892	-0.0793457	0.010437
5.894	0	0.0103821
5.896	0.0408936	0.0107727
5.898	0.0201416	0.0101807
5.9	0.0164795	0.0102173
5.902	-0.00488281	0.0101624
5.904	0.0109863	0.0100708
5.906	-0.00427246	0.00982056
5.908	0.00366211	0.00980835
5.91	0.00366211	0.00977173
5.912	-0.0115967	0.00965576
5.914	-0.0231934	0.00978394
5.916	-0.00305176	0.00953979
5.918	-0.00244141	0.00952759
5.92	-0.0177002	0.00962524
5.922	-0.00610352	0.00962524
5.924	0.00366211	0.00947876
5.926	0.0164795	0.00961914
5.928	0.00610352	0.00958252
5.93	0.0201416	0.00975952
5.932	0.0134277	0.00987549
5.934	-0.00854492	0.00993652
5.936	-0.00793457	0.00994873
5.938	-0.0219727	0.0100281
5.94	0.00915527	0.00999146
5.942	-0.0268555	0.0101135
5.944	0.00915527	0.0102051
5.946	-0.0177002	0.0103699
5.948	0.00793457	0.010437
5.95	0.0128174	0.0104919
5.952	0.0012207	0.0103882
5.954	0.0152588	0.0102966
5.956	0	0.0102478
5.958	-0.0286865	0.0104858
5.96	-0.0115967	0.0105286
5.962	-0.0543213	0.0109436
5.964	0.0317383	0.0109985
5.966	0.0421143	0.011322
5.968	-0.0183105	0.0113403
5.97	-0.0177002	0.0114929
5.972	0.0213623	0.0116455
5.974	0.0384521	0.0119934
5.976	-0.00854492	0.0119568
5.978	-0.0341797	0.0122498
5.98	-0.0134277	0.012323
5.982	-0.0134277	0.0124268
5.984	0.0518799	0.0128723
5.986	0.0268555	0.0130554
5.988	-0.0262451	0.0131836
5.99	-0.0634766	0.0137817
5.992	0.0341797	0.0141113
5.994	0.0256348	0.0143372
5.996	-0.0354004	0.0145386
5.998	-0.0939941	0.0153687
6	0.0634766	0.0159973
6.002	0.0701904	0.0166687
6.004	0.032959	0.0169617
6.006	-0.0292969	0.0172302
6.008	-0.128784	0.0183655
6.01	-0.00915527	0.0183472
6.012	0.0811768	0.0191528
6.014	0.00793457	0.0191833
6.016	0.0366211	0.0192505
6.018	0.0323486	0.01922
6.02	-0.0488281	0.0195557
6.022	0.0012207	0.0195129
6.024	0.0170898	0.019635
6.026	-0.0415039	0.0199524
6.028	0.0372314	0.0203064
6.03	0.0360107	0.0205811
6.032	-0.0366211	0.0208984
6.034	-0.0732422	0.0215332
6.036	-0.0811768	0.0223328
6.038	0.0189209	0.0222778
6.04	0.0701904	0.0228577
6.042	0.0323486	0.0230164
6.044	-0.0170898	0.0231445
6.046	-0.0518799	0.0236145
6.048	0.0524902	0.0240906
6.05	0.012207	0.0240906
6.052	0.0335693	0.0243164
6.054	-0.107422	0.0253723
6.056	0.0109863	0.0254211
6.058	0.0177002	0.0255615
6.06	0.0708008	0.0262024
6.062	-0.0201416	0.0263977
6.064	-0.0280762	0.0266541
6.066	-0.0280762	0.0269165
6.068	0.010376	0.0269592
6.07	0.00305176	0.0269104
6.072	-0.0201416	0.0270386
6.074	0.0561523	0.027594
6.076	0.0140381	0.0276978
6.078	0.0170898	0.0278259
6.08	-0.0421143	0.0281555
6.082	-0.0299072	0.0282166
6.084	0.00976563	0.0281738
6.086	-0.0219727	0.0282959
6.088	-0.0213623	0.0284119
6.09	0.0354004	0.0285645
6.092	0.0140381	0.0279114
6.094	-0.0146484	0.0280579
6.096	0.010376	0.0277527
6.098	0.0305176	0.0278564
6.1	0.0170898	0.0278625
6.102	-0.0469971	0.0282837
6.104	0.0201416	0.0283752
6.106	0.0628662	0.0289612
6.108	0.0177002	0.0291016
6.11	-0.153198	0.0305969
6.112	-0.0244141	0.0307251
6.114	-0.00915527	0.0305847
6.116	0.012207	0.0306763
6.118	0.00488281	0.0307007
6.12	0.0213623	0.0307373
6.122	-0.0384521	0.0310608
6.124	0.020752	0.0312317
6.126	0.0531006	0.0315979
6.128	0.00854492	0.0316223
6.13	-0.0415039	0.0318359
6.132	0.020752	0.0319092
6.134	0.0799561	0.0326233
6.136	0.0231934	0.0327759
6.138	0	0.0325562
6.14	-0.0976563	0.0334412
6.142	-0.0482178	0.0336548
6.144	-0.00976563	0.0336609
6.146	-0.0396729	0.0338806
6.148	-0.0146484	0.0339478
6.15	0.00183105	0.0338379
6.152	0.0280762	0.0341064
6.154	-0.00732422	0.0340271
6.156	-0.0219727	0.0342468
6.158	0.0848389	0.0348083
6.16	0.10498	0.0357422
6.162	-0.10376	0.0362366
6.164	-0.116577	0.037085
6.166	0.0811768	0.0374756
6.168	0.0384521	0.037677
6.17	0.0439453	0.0379395
6.172	-0.0195313	0.0379211
6.174	-0.0744629	0.0382813
6.176	0.0933838	0.0391296
6.178	-0.0592041	0.0393799
6.18	-0.0500488	0.0397461
6.182	0.0354004	0.0399658
6.184	0.0665283	0.0401123
6.186	-0.0299072	0.0401428
6.188	-0.0152588	0.040033
6.19	-0.00732422	0.0394714
6.192	-0.00427246	0.0391724
6.194	-0.0531006	0.039447
6.196	0.0378418	0.0394714
6.198	0.0811768	0.0393433
6.2	-0.0531006	0.0392395
6.202	-0.0512695	0.0390503
6.204	0.00854492	0.0388062
6.206	0.0543213	0.0390564
6.208	-0.0201416	0.03797
6.21	-0.0427246	0.0383057
6.212	0.0909424	0.0384033
6.214	0.0238037	0.038562
6.216	-0.157471	0.0397705
6.218	0.0390625	0.0398376
6.22	0.124512	0.0405945
6.222	-0.13855	0.0419678
6.224	-0.15564	0.0433533
6.226	0.0158691	0.0430969
6.228	0.0567627	0.0432922
6.23	0.111694	0.0440491
6.232	-0.114746	0.0448303
6.234	-0.26123	0.0467102
6.236	-0.0445557	0.046344
6.238	0.384521	0.05
6.24	0.153809	0.0508362
6.242	-0.241089	0.0529236
6.244	0.0512695	0.0532654
6.246	0.00549316	0.0528015
6.248	-0.0482178	0.0527588
6.25	0.122681	0.0538635
6.252	-0.0427246	0.0539551
6.254	0.10498	0.0539307
6.256	0.0665283	0.0544861
6.258	-0.209351	0.0564026
6.26	-0.195923	0.0576538
6.262	0.0274658	0.0577271
6.264	0.141602	0.0588623
6.266	0.0598145	0.0591797
6.268	0.067749	0.0597534
6.27	0.057373	0.0602966
6.272	-0.0164795	0.06026
6.274	-0.19104	0.0616089
6.276	0.0695801	0.0621643
6.278	0.126343	0.0632568
6.28	0.0836182	0.0636719
6.282	-0.158081	0.0649536
6.284	-0.0671387	0.0655273
6.286	0.0708008	0.0660156
6.288	-0.340576	0.0692078
6.29	-0.0927734	0.0697815
6.292	0.27832	0.0724243
6.294	-0.123291	0.0735107
6.296	0.0354004	0.073761
6.298	0.00854492	0.0735413
6.3	-0.00915527	0.0734619
6.302	-0.0750732	0.0737427
6.304	0.197144	0.0755127
6.306	0.296631	0.0778503
6.308	-0.0878906	0.0785522
6.31	-0.264893	0.0796692
6.312	-0.0909424	0.0803345
6.314	0.148315	0.0817261
6.316	-0.0366211	0.0819702
6.318	-0.0415039	0.0823364
6.32	-0.0695801	0.0828186
6.322	-0.10498	0.0834839
6.324	0.214233	0.0854187
6.326	0.361938	0.0885071
6.328	-0.111694	0.0895386
6.33	-0.146484	0.0905884
6.332	-0.0848389	0.0912292
6.334	0.12207	0.0916504
6.336	-0.0640869	0.0920593
6.338	-0.213623	0.0941956
6.34	0.0872803	0.0940918
6.342	-0.147705	0.0950867
6.344	0.00366211	0.0950256
6.346	0.422974	0.0988586
6.348	-0.0964355	0.0996765
6.35	0.110474	0.100763
6.352	0.271606	0.103198
6.354	-0.272827	0.105853
6.356	-0.0769043	0.106403
6.358	-0.0982666	0.106537
6.36	-0.213623	0.107623
6.362	0.291748	0.109503
6.364	-0.0958252	0.109296
6.366	-0.188599	0.11037
6.368	0.012207	0.110107
6.37	-0.150757	0.111176
6.372	0.170898	0.112689
6.374	-0.00976563	0.112042
6.376	0.284424	0.113953
6.378	0.0671387	0.114032
6.38	-0.0878906	0.11441
6.382	0.0183105	0.11424
6.384	-0.0524902	0.114099
6.386	-0.404053	0.117841
6.388	0.0463867	0.118152
6.39	-0.0421143	0.1185
6.392	0.388794	0.122345
6.394	0.0634766	0.122449
6.396	-0.202026	0.124091
6.398	0.0415039	0.123694
6.4	0.0640869	0.123804
6.402	-0.0738525	0.12403
6.404	0.231934	0.126263
6.406	-0.278931	0.12851
6.408	-0.0280762	0.128589
6.41	-0.0964355	0.129126
6.412	0.114136	0.129358
6.414	-0.0744629	0.129865
6.416	-0.172729	0.130017
6.418	0.494995	0.134576
6.42	0.178223	0.135114
6.422	-0.728149	0.14101
6.424	0.297852	0.142432
6.426	0.3125	0.145398
6.428	0.105591	0.145886
6.43	-0.0701904	0.145471
6.432	0.0299072	0.144623
6.434	-0.48645	0.146875
6.436	-0.0372314	0.146802
6.438	0.0982666	0.143939
6.44	-0.231934	0.14472
6.442	0.0970459	0.14328
6.444	0.146484	0.144232
6.446	-0.117188	0.145349
6.448	0.255737	0.147424
6.45	-0.0567627	0.146765
6.452	0.194702	0.148285
6.454	-0.20874	0.149323
6.456	-0.0891113	0.149548
6.458	0.343628	0.150891
6.46	0.0604248	0.149536
6.462	-0.391235	0.153174
6.464	-0.189209	0.15365
6.466	0.272217	0.155774
6.468	-0.0848389	0.155945
6.47	0.0189209	0.15556
6.472	0.0769043	0.156165
6.474	-0.0134277	0.154388
6.476	-0.00366211	0.153729
6.478	-0.147705	0.153943
6.48	0.03479	0.153455
6.482	0.144043	0.153314
6.484	-0.0921631	0.153564
6.486	-0.177612	0.154633
6.488	-0.209351	0.15332
6.49	0.357056	0.155963
6.492	-0.00183105	0.153198
6.494	-0.105591	0.153021
6.496	-0.0671387	0.153339
6.498	0.128174	0.154535
6.5	0.161743	0.156061
6.502	0.0994873	0.156305
6.504	-0.157471	0.155908
6.506	-0.19043	0.154846
6.508	0.0836182	0.154803
6.51	-0.0695801	0.15285
6.512	0.0305176	0.152246
6.514	0.26062	0.153369
6.516	0.0457764	0.153461
6.518	-0.0695801	0.153741
6.52	-0.112305	0.154169
6.522	0.116577	0.154285
6.524	-0.154419	0.153687
6.526	-0.0408936	0.150476
6.528	0.0994873	0.150354
6.53	0.136108	0.15025
6.532	-0.288086	0.152283
6.534	-0.032959	0.151392
6.536	-0.0585938	0.151337
6.538	0.0213623	0.149414
6.54	0.282593	0.151367
6.542	0.223999	0.15213
6.544	0	0.152094
6.546	-0.098877	0.148853
6.548	-0.0115967	0.148004
6.55	-0.368042	0.15058
6.552	-0.281372	0.150677
6.554	0.0494385	0.148444
6.556	0.0848389	0.148523
6.558	0.0958252	0.148499
6.56	0.010376	0.146466
6.562	-0.0500488	0.144049
6.564	-0.184937	0.14494
6.566	0.366821	0.146722
6.568	0.479126	0.151392
6.57	-0.0506592	0.150391
6.572	-0.0939941	0.149622
6.574	-0.0567627	0.150092
6.576	-0.00549316	0.147302
6.578	-0.220337	0.148834
6.58	-0.0012207	0.147968
6.582	-0.150146	0.149286
6.584	0.124512	0.150006
6.586	0.0457764	0.146423
6.588	0.0341797	0.146301
6.59	-0.119629	0.147076
6.592	-0.0793457	0.143982
6.594	0.043335	0.143781
6.596	-0.057373	0.142334
6.598	0.136719	0.143286
6.6	-0.00244141	0.14267
6.602	0.172119	0.143652
6.604	-0.0360107	0.141693
6.606	-0.288086	0.141785
6.608	0.238037	0.143884
6.61	0.0231934	0.143152
6.612	-0.0274658	0.142285
6.614	0.0762939	0.142303
6.616	-0.181274	0.142389
6.618	0.215454	0.139594
6.62	-0.0939941	0.138751
6.622	-0.131226	0.132782
6.624	-0.131226	0.131116
6.626	-0.0115967	0.128107
6.628	-0.10437	0.128094
6.63	0.0750732	0.128143
6.632	0.164795	0.129492
6.634	0.0250244	0.124878
6.636	0.0756836	0.125262
6.638	0.145264	0.125732
6.64	-0.022583	0.123639
6.642	-0.13916	0.12406
6.644	-0.0378418	0.122974
6.646	-0.067749	0.122479
6.648	-0.137939	0.121301
6.65	0.103149	0.121765
6.652	-0.0708008	0.120526
6.654	-0.198364	0.120422
6.656	0.206299	0.121594
6.658	0.0421143	0.118579
6.66	-0.00305176	0.118005
6.662	0.135498	0.115448
6.664	-0.0531006	0.114087
6.666	0.0909424	0.112274
6.668	0.0878906	0.112305
6.67	-0.0689697	0.112805
6.672	-0.0115967	0.112152
6.674	-0.0384521	0.112402
6.676	-0.0445557	0.112811
6.678	-0.0280762	0.111615
6.68	0.136108	0.112628
6.682	-0.102539	0.112213
6.684	-0.0439453	0.111731
6.686	0.00305176	0.109985
6.688	-0.0720215	0.108612
6.69	0.022583	0.105267
6.692	-0.0738525	0.105988
6.694	0.0579834	0.105511
6.696	0.0909424	0.10575
6.698	-0.123901	0.105707
6.7	0.0390625	0.10448
6.702	-0.0653076	0.104138
6.704	0.0744629	0.103308
6.706	-0.0415039	0.101819
6.708	-0.0585938	0.101569
6.71	0.19104	0.102783
6.712	-0.0439453	0.102917
6.714	0.114136	0.101453
6.716	0.109253	0.102087
6.718	-0.157471	0.102966
6.72	-0.19043	0.103748
6.722	0.065918	0.103241
6.724	-0.00305176	0.101727
6.726	-0.0762939	0.102081
6.728	-0.0323486	0.10141
6.73	0.0378418	0.100427
6.732	0.108032	0.0986267
6.734	-0.109253	0.0993896
6.736	0.145264	0.100256
6.738	0.0482178	0.100525
6.74	-0.0152588	0.0978516
6.742	-0.188599	0.0974976
6.744	-0.114746	0.098645
6.746	0.169067	0.0993469
6.748	-0.0500488	0.0997314
6.75	0.187988	0.0979309
6.752	0.0726318	0.0958435
6.754	0.00976563	0.0954468
6.756	-0.0231934	0.0948303
6.758	0.0799561	0.0946716
6.76	-0.274048	0.0973083
6.762	0.00244141	0.0968323
6.764	-0.256348	0.0975464
6.766	0.0744629	0.0946228
6.768	0.103149	0.090863
6.77	0.00732422	0.0904297
6.772	-0.111694	0.0906067
6.774	0.195923	0.0919983
6.776	0.00305176	0.0919739
6.778	-0.137329	0.0911438
6.78	0.203247	0.0931641
6.782	-0.0170898	0.0918335
6.784	0.0262451	0.0908508
6.786	0.176392	0.092157
6.788	-0.098877	0.092804
6.79	-0.186768	0.0934753
6.792	-0.0592041	0.0932739
6.794	0.0140381	0.092981
6.796	0.0402832	0.0928101
6.798	-0.03479	0.0917908
6.8	-0.0494385	0.0922607
6.802	0.0250244	0.0907898
6.804	0.162964	0.0920593
6.806	0.0854492	0.090033
6.808	-0.0915527	0.0885681
6.81	-0.0708008	0.0890442
6.812	-0.0738525	0.0895081
6.814	-0.0811768	0.0895569
6.816	0.0158691	0.0879028
6.818	0.159302	0.0873413
6.82	0.0579834	0.0869812
6.822	-0.147095	0.0871399
6.824	-0.0396729	0.0862244
6.826	0.158081	0.0876892
6.828	0.0421143	0.0870667
6.83	-0.0726318	0.0870422
6.832	-0.0457764	0.0858521
6.834	-0.0610352	0.0862122
6.836	0.0854492	0.0863098
6.838	0.065918	0.0855164
6.84	-0.0701904	0.0859924
6.842	0.0476074	0.0850769
6.844	-0.0842285	0.0855408
6.846	0.12146	0.0860779
6.848	0.110474	0.0858032
6.85	0.000610352	0.0847778
6.852	-0.0976563	0.0850464
6.854	-0.0427246	0.08349
6.856	-0.12146	0.0826416
6.858	0.0927734	0.0831482
6.86	0.0872803	0.0839905
6.862	-0.169678	0.0843323
6.864	0.114136	0.0849426
6.866	-0.0402832	0.084436
6.868	0.0274658	0.0838318
6.87	0.0268555	0.0834106
6.872	-0.0390625	0.0836853
6.874	-0.00183105	0.0833191
6.876	-0.00488281	0.0829224
6.878	-0.0189209	0.0828308
6.88	0.0726318	0.082196
6.882	-0.0115967	0.0812866
6.884	-0.220337	0.0830505
6.886	0.10498	0.0840698
6.888	0.0323486	0.0836731
6.89	-0.0213623	0.0836609
6.892	-0.0292969	0.0832153
6.894	0.0323486	0.082959
6.896	0.133057	0.0833801
6.898	0.0402832	0.0825439
6.9	0.022583	0.0823792
6.902	-0.244141	0.0841675
6.904	-0.15625	0.0849854
6.906	0.0579834	0.0851501
6.908	0.0714111	0.0852783
6.91	-0.010376	0.0834717
6.912	0.00305176	0.0830627
6.914	0.115356	0.083075
6.916	-0.0299072	0.0822815
6.918	-0.0128174	0.080835
6.92	0.012207	0.0790527
6.922	0.100708	0.0794006
6.924	0.0579834	0.07995
6.926	-0.0756836	0.0799438
6.928	0.0463867	0.0800842
6.93	-0.117188	0.0808777
6.932	-0.0579834	0.0803772
6.934	0.0384521	0.0796692
6.936	-0.0109863	0.0783264
6.938	-0.153198	0.0793762
6.94	0.00732422	0.0792969
6.942	0.0238037	0.0776489
6.944	0.0317383	0.0768188
6.946	0.147095	0.0765991
6.948	-0.0115967	0.0762146
6.95	0.0299072	0.0746338
6.952	0.0366211	0.0742737
6.954	-0.0372314	0.0745483
6.956	-0.227051	0.0765869
6.958	-0.143433	0.0772217
6.96	0.366211	0.0781433
6.962	0.00305176	0.0781494
6.964	-0.0421143	0.0760071
6.966	0.0128174	0.0753906
6.968	-0.161743	0.0759766
6.97	-0.0878906	0.0767822
6.972	0.172729	0.0773926
6.974	0.0671387	0.0761047
6.976	-0.0915527	0.0769897
6.978	0.00183105	0.0756348
6.98	0.150757	0.0751099
6.982	-0.124512	0.0761841
6.984	-0.0732422	0.0766541
6.986	0.125122	0.0761414
6.988	-0.112305	0.0762756
6.99	-0.0366211	0.0747742
6.992	0.0531006	0.0747131
6.994	0.0213623	0.0747864
6.996	0.229492	0.0766785
6.998	-0.0738525	0.0770691
7	-0.247803	0.0790527
7.002	0.13855	0.080188
7.004	0.130615	0.0798645
7.006	-0.224609	0.0812561
7.008	-0.22583	0.0825989
7.01	0.119019	0.0830811
7.012	0.0689697	0.0830322
7.014	0.0543213	0.0827637
7.016	-0.0250244	0.0828552
7.018	-0.0592041	0.0818542
7.02	-0.0390625	0.081665
7.022	0.176392	0.081958
7.024	0.0964355	0.0825256
7.026	0.0445557	0.0813904
7.028	-0.022583	0.0811951
7.03	-0.162354	0.0820923
7.032	0.03479	0.0819824
7.034	-0.0543213	0.0819153
7.036	-0.0299072	0.0813599
7.038	-0.179443	0.0824951
7.04	0.090332	0.0826965
7.042	-0.0653076	0.0828735
7.044	-0.0146484	0.0821777
7.046	0.0787354	0.0817505
7.048	0.00183105	0.0806641
7.05	0.176392	0.0824219
7.052	0.194092	0.0833862
7.054	0.0231934	0.0831909
7.056	-0.10376	0.0830139
7.058	-0.152588	0.0836121
7.06	-0.234985	0.0850891
7.062	-0.149536	0.0848877
7.064	0.261841	0.0863647
7.066	0.0274658	0.0862366
7.068	0.00793457	0.0860413
7.07	-0.128784	0.0870605
7.072	-0.0408936	0.0870789
7.074	0.0476074	0.0875366
7.076	0.098877	0.0884766
7.078	0.115967	0.089447
7.08	-0.0488281	0.089209
7.082	0.0415039	0.0895081
7.084	0.15625	0.0888672
7.086	0.0134277	0.0879517
7.088	-0.0769043	0.0883972
7.09	-0.146484	0.0896484
7.092	-0.0848389	0.0902039
7.094	0.0769043	0.0906494
7.096	0.0354004	0.0896729
7.098	-0.0823975	0.090094
7.1	-0.175171	0.0916199
7.102	-0.0518799	0.0896973
7.104	0.263062	0.0907654
7.106	-0.0469971	0.0906555
7.108	-0.010376	0.0900452
7.11	0.129395	0.0912354
7.112	0.123901	0.0924438
7.114	-0.183105	0.0931213
7.116	-0.146484	0.0942871
7.118	-0.020752	0.0943665
7.12	0.0292969	0.0945374
7.122	0.155029	0.0950806
7.124	0.0549316	0.09505
7.126	-0.105591	0.0953491
7.128	-0.244751	0.0973328
7.13	-0.106201	0.0972229
7.132	0.357056	0.100214
7.134	0.0213623	0.100043
7.136	0.0860596	0.100793
7.138	0.162964	0.100891
7.14	-0.0341797	0.10116
7.142	-0.171509	0.102637
7.144	-0.0439453	0.102759
7.146	-0.167847	0.102966
7.148	-0.252075	0.105371
7.15	0.172119	0.106793
7.152	0.180664	0.108234
7.154	-0.0701904	0.108563
7.156	-0.187988	0.108173
7.158	0.0219727	0.106958
7.16	0.0866699	0.104163
7.162	0.0164795	0.104297
7.164	0.10376	0.104913
7.166	-0.0305176	0.10509
7.168	0.12085	0.104681
7.17	0.0921631	0.104724
7.172	-0.390015	0.106897
7.174	0.197754	0.108203
7.176	0.160522	0.108893
7.178	-0.456543	0.11344
7.18	0.235596	0.114288
7.182	0.290527	0.115948
7.184	-0.0280762	0.115497
7.186	-0.112915	0.115375
7.188	-0.103149	0.115283
7.19	-0.0958252	0.115875
7.192	0.03479	0.115692
7.194	-0.0939941	0.116418
7.196	-0.012207	0.114246
7.198	-0.032959	0.113837
7.2	0.00305176	0.111389
7.202	0.0836182	0.11084
7.204	-0.0012207	0.109546
7.206	-0.115356	0.108453
7.208	-0.10437	0.107239
7.21	0.0476074	0.106525
7.212	0.177002	0.107605
7.214	0.0805664	0.107867
7.216	-0.114746	0.108765
7.218	-0.117798	0.109351
7.22	-0.0152588	0.109113
7.222	0.304565	0.110394
7.224	-0.100708	0.110437
7.226	-0.223389	0.112225
7.228	0.114136	0.113141
7.23	0.0292969	0.11181
7.232	0.0958252	0.112421
7.234	0.078125	0.112659
7.236	-0.177612	0.114136
7.238	-0.0939941	0.113281
7.24	-0.0579834	0.112958
7.242	0.0750732	0.113055
7.244	-0.0531006	0.11344
7.246	0.0897217	0.11355
7.248	0.0708008	0.11424
7.25	-0.0366211	0.112842
7.252	0.0268555	0.111169
7.254	0.0506592	0.111444
7.256	-0.0299072	0.110706
7.258	-0.100098	0.110181
7.26	0.0518799	0.10835
7.262	0.19165	0.108771
7.264	0.0012207	0.106165
7.266	-0.136719	0.107257
7.268	-0.124512	0.108423
7.27	-0.0817871	0.107953
7.272	0.0689697	0.108234
7.274	0.184326	0.109601
7.276	0.088501	0.109497
7.278	-0.0579834	0.108917
7.28	-0.0726318	0.109155
7.282	-0.160522	0.110345
7.284	0.065918	0.109442
7.286	-0.065918	0.109967
7.288	0.0274658	0.109473
7.29	0.0256348	0.108264
7.292	-0.236816	0.109784
7.294	0.128174	0.110297
7.296	0.131226	0.111255
7.298	-0.172119	0.112152
7.3	0.106812	0.111469
7.302	0.139771	0.112347
7.304	-0.0878906	0.110596
7.306	0.0152588	0.110278
7.308	0.320435	0.113379
7.31	-0.119629	0.113281
7.312	-0.15686	0.113611
7.314	-0.148315	0.113263
7.316	-0.202637	0.113824
7.318	0.162354	0.11524
7.32	0.211182	0.117059
7.322	0.128174	0.116791
7.324	-0.0146484	0.116388
7.326	0.0323486	0.115656
7.328	-0.136719	0.114575
7.33	-0.0177002	0.11369
7.332	-0.0335693	0.110455
7.334	0.0512695	0.110754
7.336	0.153198	0.111426
7.338	0.0561523	0.110358
7.34	-0.114136	0.111157
7.342	-0.258789	0.11203
7.344	0.119629	0.112787
7.346	-0.0366211	0.111475
7.348	-0.0976563	0.10993
7.35	0.131226	0.109521
7.352	-0.0146484	0.107861
7.354	0.0506592	0.107666
7.356	-0.0805664	0.106592
7.358	-0.0366211	0.106738
7.36	0.0396729	0.106268
7.362	0.0323486	0.106427
7.364	-0.0518799	0.105908
7.366	0.0830078	0.106433
7.368	0.0628662	0.105853
7.37	0.0396729	0.105328
7.372	-0.172729	0.103156
7.374	-0.0390625	0.101569
7.376	0.0476074	0.100439
7.378	0.0408936	0.096283
7.38	0.0183105	0.0941101
7.382	-0.0946045	0.0921509
7.384	0.0561523	0.0924316
7.386	-0.0750732	0.0920532
7.388	-0.118408	0.0922058
7.39	0.123901	0.0924866
7.392	0.0726318	0.092865
7.394	0.0854492	0.0927795
7.396	-0.043335	0.0930908
7.398	-0.0140381	0.0929016
7.4	0.0628662	0.0934998
7.402	0.0708008	0.0933716
7.404	-0.012207	0.0934814
7.406	-0.0909424	0.0932373
7.408	-0.00732422	0.0922668
7.41	0.00854492	0.0918762
7.412	-0.0335693	0.0904419
7.414	-0.0115967	0.0897522
7.416	0.0146484	0.0887512
7.418	-0.0769043	0.0883423
7.42	-0.0616455	0.0888062
7.422	0.0653076	0.0864136
7.424	0.0891113	0.0862976
7.426	0.114136	0.0852051
7.428	0.0970459	0.0850342
7.43	-0.0683594	0.0854248
7.432	-0.128784	0.0857544
7.434	-0.0646973	0.0856201
7.436	-0.0665283	0.0845093
7.438	-0.0219727	0.0837891
7.44	0.0476074	0.0836853
7.442	0.0604248	0.0835388
7.444	-0.0012207	0.08302
7.446	-0.032959	0.0824524
7.448	-0.0341797	0.0820862
7.45	0.032959	0.0820496
7.452	0.0335693	0.0821167
7.454	0.0830078	0.0824402
7.456	0.00183105	0.0821594
7.458	0.00427246	0.0812012
7.46	-0.00488281	0.0807312
7.462	-0.0628662	0.0794434
7.464	-0.0494385	0.0799255
7.466	0.010376	0.0786621
7.468	-0.0262451	0.0776794
7.47	0.0500488	0.0773621
7.472	0.0183105	0.0768555
7.474	0.0128174	0.0751404
7.476	-0.0286865	0.0745422
7.478	0.00671387	0.0740295
7.48	0.0720215	0.0740234
7.482	0.0463867	0.0728821
7.484	-0.0732422	0.0729553
7.486	-0.0561523	0.0728577
7.488	-0.0482178	0.0730652
7.49	-0.0396729	0.0732056
7.492	0.0012207	0.0708496
7.494	-0.000610352	0.069574
7.496	0.020752	0.0684692
7.498	0.043335	0.0671814
7.5	0.0402832	0.0665161
7.502	-0.0616455	0.0657349
7.504	-0.010376	0.0649597
7.506	-0.0280762	0.0650879
7.508	0.0689697	0.0625732
7.51	0.067749	0.0620544
7.512	0.0183105	0.0606689
7.514	-0.0537109	0.0597229
7.516	-0.0299072	0.0579956
7.518	-0.022583	0.0565979
7.52	-0.0402832	0.0548889
7.522	-0.0299072	0.0539063
7.524	0.0250244	0.05401
7.526	0.0128174	0.0538147
7.528	0.0482178	0.0529297
7.53	0.065918	0.0534119
7.532	0.0146484	0.0532227
7.534	-0.0695801	0.0534058
7.536	-0.0372314	0.0522461
7.538	-0.0439453	0.052124
7.54	0.0378418	0.0513611
7.542	0.00671387	0.0488403
7.544	0.0213623	0.0478577
7.546	-0.00305176	0.047522
7.548	-0.000610352	0.0465515
7.55	-0.0274658	0.0455139
7.552	0.0360107	0.0457275
7.554	-0.00305176	0.0452515
7.556	-0.00671387	0.0445129
7.558	0.0457764	0.0446045
7.56	0.0311279	0.044519
7.562	-0.0408936	0.0446045
7.564	-0.0775146	0.0448608
7.566	-0.0616455	0.0446472
7.568	0.0115967	0.0441345
7.57	0.0427246	0.044165
7.572	0.0189209	0.042627
7.574	-0.0201416	0.0424377
7.576	0.00671387	0.0420288
7.578	0.0183105	0.041803
7.58	-0.00305176	0.0416504
7.582	0.00671387	0.0407715
7.584	-0.0158691	0.0403687
7.586	0.0152588	0.0397705
7.588	0.0585938	0.0391724
7.59	-0.0140381	0.0380737
7.592	-0.0469971	0.0378174
7.594	0.00488281	0.0370117
7.596	-0.0402832	0.0369812
7.598	-0.00549316	0.0368958
7.6	-0.0305176	0.0365723
7.602	0.022583	0.0360901
7.604	-0.0115967	0.036084
7.606	-0.00183105	0.0351929
7.608	0.00549316	0.0351746
7.61	0.0134277	0.0352234
7.612	0.0134277	0.035022
7.614	0.00427246	0.0349487
7.616	-0.00183105	0.0348206
7.618	0.0402832	0.0344543
7.62	0.00366211	0.0338745
7.622	-0.0134277	0.0333557
7.624	0.0012207	0.0324768
7.626	0.00488281	0.0313843
7.628	-0.00488281	0.0304626
7.63	-0.0109863	0.0298889
7.632	-0.00854492	0.0286865
7.634	-0.0152588	0.0281921
7.636	-0.0421143	0.027948
7.638	0.0012207	0.0277405
7.64	-0.00427246	0.0273071
7.642	0.0177002	0.0268799
7.644	-0.00244141	0.0268921
7.646	-0.0134277	0.0266968
7.648	0.00488281	0.0264038
7.65	0.00732422	0.0261475
7.652	-0.0012207	0.025824
7.654	0.0445557	0.0254395
7.656	0.00244141	0.0254456
7.658	0.020752	0.0256104
7.66	-0.0268555	0.0258301
7.662	-0.020752	0.0254089
7.664	0.0128174	0.0250427
7.666	0.0299072	0.025238
7.668	-0.0616455	0.025592
7.67	-0.032959	0.0254211
7.672	-0.00732422	0.0253113
7.674	-0.00305176	0.0252136
7.676	0.0335693	0.0252625
7.678	0.00244141	0.0252197
7.68	-0.00549316	0.0245544
7.682	-0.0109863	0.0242004
7.684	0.00305176	0.0234985
7.686	0.0274658	0.0232117
7.688	-0.0128174	0.0228577
7.69	0.00732422	0.0225342
7.692	-0.00488281	0.0225708
7.694	-0.000610352	0.0225708
7.696	0.0164795	0.0225281
7.698	0.022583	0.0223206
7.7	-0.0671387	0.0225891
7.702	0	0.0219727
7.704	0.0146484	0.0220154
7.706	-0.0292969	0.0220276
7.708	-0.00671387	0.021405
7.71	-0.020752	0.0209351
7.712	0.0274658	0.0210266
7.714	0.0537109	0.0210266
7.716	0.0238037	0.0209656
7.718	0.000610352	0.0207458
7.72	-0.0714111	0.0210571
7.722	-0.0158691	0.0209167
7.724	0.00488281	0.0207153
7.726	0.0238037	0.0208252
7.728	0.0244141	0.0205872
7.73	-0.0500488	0.0204285
7.732	0.0268555	0.0205505
7.734	-0.00305176	0.0198853
7.736	-0.0335693	0.0198486
7.738	0.0231934	0.0196411
7.74	-0.0622559	0.0198853
7.742	-0.00915527	0.0199097
7.744	0.00671387	0.0197632
7.746	0.0457764	0.0201904
7.748	0.0231934	0.0204163
7.75	-0.0231934	0.0203735
7.752	-0.0274658	0.0202881
7.754	-0.0146484	0.0204041
7.756	-0.00427246	0.0203796
7.758	0.0335693	0.0202576
7.76	0.0256348	0.0202026
7.762	0.0140381	0.0199341
7.764	0.0585938	0.0197449
7.766	0.0421143	0.0195496
7.768	-0.0238037	0.0196716
7.77	-0.0463867	0.0197083
7.772	-0.0695801	0.0202148
7.774	0.0012207	0.0200256
7.776	-0.0152588	0.0201111
7.778	-0.0128174	0.0200562
7.78	0.00244141	0.02005
7.782	0.00732422	0.0200562
7.784	-0.00244141	0.0199219
7.786	0.0128174	0.0198975
7.788	0.0152588	0.0194641
7.79	0.0189209	0.0195129
7.792	-0.00671387	0.0191101
7.794	-0.0384521	0.0194458
7.796	0.0244141	0.0192871
7.798	-0.0183105	0.0194153
7.8	0.0134277	0.0192444
7.802	-0.00488281	0.0190674
7.804	-0.00427246	0.0189941
7.806	0.0299072	0.0192749
7.808	-0.00549316	0.0192749
7.81	-0.0292969	0.0194336
7.812	0.0140381	0.0194397
7.814	-0.00732422	0.0194702
7.816	0.00732422	0.0195251
7.818	-0.0512695	0.019635
7.82	-0.0115967	0.0197144
7.822	-0.00427246	0.0196228
7.824	0.0378418	0.019989
7.826	0.00549316	0.0199951
7.828	-0.00366211	0.0199829
7.83	0.0231934	0.020105
7.832	0.0512695	0.0205322
7.834	-0.00671387	0.0204468
7.836	-0.0415039	0.0204407
7.838	0.0299072	0.0207275
7.84	-0.0311279	0.0209961
7.842	-0.114746	0.0219666
7.844	-0.0402832	0.022345
7.846	0.0775146	0.0229858
7.848	0.03479	0.0232849
7.85	-0.0311279	0.0235229
7.852	0.0524902	0.0240356
7.854	0.0402832	0.0239929
7.856	-0.00976563	0.0240662
7.858	-0.0494385	0.024353
7.86	0.00305176	0.024115
7.862	0.0335693	0.0242432
7.864	-0.03479	0.0244629
7.866	-0.0506592	0.0246704
7.868	-0.0378418	0.0244324
7.87	-0.022583	0.0243286
7.872	-0.00488281	0.0243042
7.874	0.0299072	0.0245728
7.876	0.065918	0.0248962
7.878	0.0701904	0.0255737
7.88	0.0109863	0.0256287
7.882	0.0262451	0.0257813
7.884	-0.0396729	0.0261475
7.886	-0.0280762	0.0261536
7.888	-0.0482178	0.0265076
7.89	-0.0244141	0.0266785
7.892	-0.0115967	0.0267456
7.894	-0.0146484	0.026886
7.896	0.0250244	0.0269714
7.898	-0.00549316	0.0268005
7.9	0.00244141	0.0261536
7.902	0.020752	0.0263611
7.904	0.0183105	0.0263977
7.906	0.00610352	0.0261658
7.908	-0.00488281	0.0261475
7.91	-0.0323486	0.0262634
7.912	0.00427246	0.0260315
7.914	-0.020752	0.0257019
7.916	-0.00671387	0.025531
7.918	0.0244141	0.025769
7.92	0.00732422	0.0251282
7.922	0.00549316	0.0250244
7.924	-0.0164795	0.0251404
7.926	-0.0280762	0.0251831
7.928	0.000610352	0.0249451
7.93	-0.0268555	0.0247131
7.932	-0.0140381	0.024585
7.934	0.0531006	0.0250854
7.936	0.0421143	0.0251709
7.938	-0.010376	0.0250427
7.94	-0.0134277	0.0245544
7.942	0.03479	0.0248108
7.944	-0.00244141	0.0247681
7.946	-0.0134277	0.0244446
7.948	-0.0341797	0.0245544
7.95	-0.0317383	0.0246399
7.952	0	0.0243652
7.954	0.0134277	0.024353
7.956	-0.0195313	0.0245056
7.958	-0.0415039	0.024585
7.96	0.0317383	0.024646
7.962	0.00610352	0.0245667
7.964	0.0292969	0.0242737
7.966	0.0109863	0.0239624
7.968	-0.00610352	0.0237854
7.97	0.010376	0.0234253
7.972	-0.0164795	0.0228943
7.974	-0.00854492	0.0229675
7.976	-0.00183105	0.0228333
7.978	-0.0244141	0.0229492
7.98	0.00976563	0.0230225
7.982	0.00427246	0.0229919
7.984	0.0115967	0.0230835
7.986	0.012207	0.0230774
7.988	-0.0268555	0.0231934
7.99	-0.0201416	0.0232056
7.992	-0.00793457	0.0232178
7.994	0.00427246	0.022876
7.996	-0.0115967	0.0227478
7.998	0.0128174	0.0226929
8	0.00854492	0.022644
8.002	0.0244141	0.0228394
8.004	-0.0372314	0.0231689
8.006	0.00793457	0.0229492
8.008	0.0323486	0.0232178
8.01	-0.0158691	0.0230835
8.012	0.0366211	0.0233093
8.014	0.0109863	0.0233459
8.016	-0.0201416	0.0234741
8.018	-0.0445557	0.023407
8.02	-0.0323486	0.0236145
8.022	0.055542	0.0241272
8.024	-0.0506592	0.0242554
8.026	-0.00732422	0.0242737
8.028	0.0360107	0.0245972
8.03	-0.00732422	0.0244385
8.032	0.00610352	0.0239868
8.034	-0.00854492	0.0240051
8.036	0.0152588	0.0237427
8.038	0.00732422	0.0235168
8.04	-0.00183105	0.0232239
8.042	-0.0396729	0.0224731
8.044	-0.0335693	0.022406
8.046	0.0378418	0.0220093
8.048	0.0250244	0.0219116
8.05	0.022583	0.0218262
8.052	-0.0250244	0.0215515
8.054	-0.0775146	0.0219238
8.056	-0.00976563	0.0219238
8.058	-0.0366211	0.0217957
8.06	0.020752	0.0219727
8.062	0.0305176	0.0219421
8.064	0.0836182	0.0224304
8.066	0.0280762	0.0222046
8.068	-0.045166	0.0222778
8.07	-0.0170898	0.0222229
8.072	0.0140381	0.0223145
8.074	0.0146484	0.0221619
8.076	-0.00610352	0.0215637
8.078	-0.022583	0.0210876
8.08	-0.0170898	0.0211487
8.082	-0.00976563	0.0209839
8.084	-0.0421143	0.0210083
8.086	0.0164795	0.0208923
8.088	0.00305176	0.0204407
8.09	0.0177002	0.0203735
8.092	0.0201416	0.020459
8.094	0.0335693	0.0206482
8.096	0.00366211	0.0204346
8.098	0.00854492	0.0204651
8.1	0.00305176	0.0204712
8.102	0.0152588	0.0204163
8.104	-0.00976563	0.0203308
8.106	-0.0732422	0.0210022
8.108	-0.0311279	0.0212646
8.11	0.0213623	0.0211548
8.112	-0.0262451	0.0213745
8.114	-0.00854492	0.0212524
8.116	0.043335	0.0216187
8.118	-0.0109863	0.0214844
8.12	0.0170898	0.021582
8.122	-0.0250244	0.0217773
8.124	0.00427246	0.0216553
8.126	0.010376	0.0214783
8.128	-0.0201416	0.0216736
8.13	0.00305176	0.0214355
8.132	-0.00305176	0.0213257
8.134	0.0280762	0.0210754
8.136	-0.0134277	0.0207886
8.138	-0.0463867	0.0211487
8.14	0.0457764	0.0214722
8.142	-0.00244141	0.0211487
8.144	0.0305176	0.0214294
8.146	-0.0195313	0.0214905
8.148	-0.00915527	0.0212402
8.15	0.0256348	0.0211792
8.152	-0.00793457	0.0212585
8.154	-0.0219727	0.021344
8.156	-0.00549316	0.0212036
8.158	-0.0311279	0.0210999
8.16	-0.0396729	0.0211792
8.162	-0.00305176	0.0211487
8.164	0.0439453	0.0212952
8.166	0.0415039	0.0216003
8.168	0.0543213	0.0220825
8.17	-0.0238037	0.0222168
8.172	-0.0134277	0.0221863
8.174	0.0201416	0.0223022
8.176	-0.000610352	0.02229
8.178	-0.0311279	0.0223572
8.18	-0.0195313	0.0224548
8.182	-0.00183105	0.0224304
8.184	0.00732422	0.0223877
8.186	-0.00305176	0.0222961
8.188	-0.0170898	0.0221985
8.19	-0.00427246	0.0220398
8.192	-0.000610352	0.0219666
8.194	-0.0292969	0.0222168
8.196	0.0189209	0.02229
8.198	0.0250244	0.0224121
8.2	-0.0140381	0.022467
8.202	0.0268555	0.0224915
8.204	0.00305176	0.0221497
8.206	0.012207	0.0221924
8.208	0.00610352	0.0219299
8.21	-0.0189209	0.0219604
8.212	0.000610352	0.0216003
8.214	-0.0323486	0.021814
8.216	0.000610352	0.0216187
8.218	0.0158691	0.0213318
8.22	-0.0244141	0.0212524
8.222	0.00305176	0.0207275
8.224	0.0158691	0.0203796
8.226	-0.0341797	0.0206482
8.228	-0.0360107	0.0206482
8.23	-0.00305176	0.0206055
8.232	0.020752	0.020752
8.234	0.057373	0.0212402
8.236	0.0274658	0.0213623
8.238	-0.0189209	0.0214783
8.24	-0.0134277	0.0215942
8.242	-0.0256348	0.0214539
8.244	-0.00915527	0.0212097
8.246	-0.0170898	0.0210022
8.248	-0.00366211	0.0207886
8.25	-0.0012207	0.020575
8.252	0.0262451	0.0205872
8.254	-0.0012207	0.0198242
8.256	0.0152588	0.0198792
8.258	0.00366211	0.0195496
8.26	0.0140381	0.0194824
8.262	0.00732422	0.0192505
8.264	-0.03479	0.0187622
8.266	0.0537109	0.0190186
8.268	-0.03479	0.0189148
8.27	-0.00183105	0.0187622
8.272	-0.00549316	0.0186768
8.274	-0.0286865	0.0188171
8.276	-0.00549316	0.018811
8.278	-0.00976563	0.0186829
8.28	-0.00915527	0.0186035
8.282	0.0140381	0.0186462
8.284	0.0268555	0.0184937
8.286	0.000610352	0.018335
8.288	0.000610352	0.0183105
8.29	-0.00732422	0.0182068
8.292	-0.022583	0.0182312
8.294	-0.010376	0.0179993
8.296	-0.0115967	0.0180786
8.298	0.0170898	0.0181641
8.3	0.0250244	0.0183838
8.302	0.00183105	0.0182495
8.304	-0.0140381	0.0182922
8.306	-0.0146484	0.0177063
8.308	-0.012207	0.0175171
8.31	-0.000610352	0.0173096
8.312	0.0372314	0.0174194
8.314	-0.00427246	0.0173767
8.316	0.00854492	0.0170288
8.318	-0.0158691	0.0170776
8.32	-0.0115967	0.0170227
8.322	-0.0256348	0.0170288
8.324	0.0317383	0.0173035
8.326	-0.0177002	0.0173767
8.328	-0.022583	0.0174011
8.33	0.0012207	0.0173828
8.332	0.010376	0.0174561
8.334	0.0305176	0.0174805
8.336	-0.0134277	0.0174805
8.338	-0.0354004	0.0173706
8.34	-0.0317383	0.0172302
8.342	-0.00244141	0.0172302
8.344	0.0201416	0.0171265
8.346	0.0140381	0.0170715
8.348	0.012207	0.0171021
8.35	-0.0134277	0.01698
8.352	0.00244141	0.016925
8.354	0.0170898	0.0168762
8.356	0.022583	0.0170471
8.358	0.0286865	0.0170227
8.36	-0.0140381	0.0167664
8.362	-0.0238037	0.0169739
8.364	-0.0262451	0.0167969
8.366	-0.0305176	0.016687
8.368	0.0213623	0.0163574
8.37	-0.0231934	0.0163513
8.372	-0.00732422	0.0162903
8.374	-0.000610352	0.016095
8.376	0.00488281	0.0161377
8.378	0	0.0158264
8.38	0.000610352	0.0156372
8.382	0.0183105	0.015802
8.384	0.00915527	0.0158203
8.386	-0.0170898	0.0159607
8.388	0.0146484	0.0159363
8.39	-0.00610352	0.0159546
8.392	0.0170898	0.0161194
8.394	-0.010376	0.0159302
8.396	-0.0146484	0.0158875
8.398	0	0.0156372
8.4	-0.00854492	0.0155823
8.402	-0.0341797	0.0156555
8.404	0.00549316	0.0156799
8.406	-0.00183105	0.0155762
8.408	0.0256348	0.0157715
8.41	0.00854492	0.0156677
8.412	-0.0158691	0.0158203
8.414	-0.0115967	0.0156128
8.416	0.012207	0.0157288
8.418	-0.012207	0.0156921
8.42	0.00366211	0.0154846
8.422	-0.0152588	0.0156067
8.424	0.0317383	0.0157654
8.426	-0.00549316	0.0154785
8.428	-0.0012207	0.0151306
8.43	-0.00488281	0.0151489
8.432	-0.0158691	0.0151001
8.434	0.00305176	0.0145569
8.436	-0.0213623	0.0144958
8.438	-0.00427246	0.0143494
8.44	0.0183105	0.0143982
8.442	0.00488281	0.0141907
8.444	0.00854492	0.0141846
8.446	-0.00549316	0.0140686
8.448	-0.0109863	0.0141418
8.45	-0.0134277	0.0142639
8.452	0.00427246	0.0140442
8.454	0	0.014032
8.456	0.0305176	0.0141846
8.458	0.03479	0.0144958
8.46	0.0115967	0.0144714
8.462	0.00183105	0.0144165
8.464	-0.0341797	0.0144104
8.466	-0.0390625	0.0142639
8.468	-0.0164795	0.0140808
8.47	0.00183105	0.0140808
8.472	0.00671387	0.014093
8.474	-0.0195313	0.0140015
8.476	-0.00610352	0.0140076
8.478	-0.0274658	0.0141846
8.48	0.0170898	0.0142639
8.482	0.0280762	0.0144043
8.484	0.0292969	0.0144287
8.486	0.0524902	0.0149475
8.488	-0.0427246	0.0153687
8.49	-0.0335693	0.0156311
8.492	-0.0354004	0.0157593
8.494	0.00671387	0.0157227
8.496	-0.00793457	0.015686
8.498	-0.0189209	0.0157043
8.5	-0.00366211	0.0154907
8.502	0.0134277	0.0156067
8.504	-0.00183105	0.0154846
8.506	0.010376	0.0154419
8.508	0.0189209	0.015509
8.51	0.0109863	0.0156128
8.512	0.010376	0.0153442
8.514	-0.0280762	0.0155823
8.516	0.00183105	0.0155151
8.518	0.0396729	0.0157532
8.52	0	0.0156372
8.522	-0.0256348	0.0156372
8.524	-0.0476074	0.0157959
8.526	-0.022583	0.0158447
8.528	-0.0012207	0.0156311
8.53	-0.00854492	0.0157043
8.532	0.020752	0.0158081
8.534	0.0634766	0.0161377
8.536	0.00549316	0.0160583
8.538	-0.0244141	0.0159485
8.54	-0.0292969	0.0159241
8.542	-0.00915527	0.0159912
8.544	0.00732422	0.015863
8.546	0.00610352	0.0157837
8.548	0.00671387	0.0157288
8.55	0.00671387	0.0156616
8.552	-0.0109863	0.0157471
8.554	-0.0146484	0.0157227
8.556	-0.00244141	0.0155212
8.558	-0.0115967	0.0153503
8.56	-0.00244141	0.0152344
8.562	0.0170898	0.0151672
8.564	0.0140381	0.0150452
8.566	0.000610352	0.0147461
8.568	-0.00549316	0.0145874
8.57	-0.00976563	0.0144531
8.572	0.00976563	0.0144775
8.574	-0.00244141	0.0144958
8.576	-0.00854492	0.0145325
8.578	-0.012207	0.0146545
8.58	-0.0170898	0.0148193
8.582	-0.00488281	0.0146851
8.584	0.0158691	0.0147522
8.586	0.0183105	0.0147644
8.588	0.0109863	0.0147278
8.59	-0.00671387	0.0147339
8.592	-0.045166	0.0150146
8.594	0.000610352	0.014917
8.596	0.00793457	0.0148499
8.598	0.00183105	0.0148682
8.6	-0.0128174	0.0149109
8.602	0.0189209	0.0147583
8.604	-0.00183105	0.0147217
8.606	-0.0177002	0.0148804
8.608	0.010376	0.0147278
8.61	0.00183105	0.0146606
8.612	0.020752	0.0147095
8.614	0.00244141	0.0146179
8.616	-0.0213623	0.0147095
8.618	-0.0238037	0.0148254
8.62	-0.0189209	0.014978
8.622	0.0195313	0.0150208
8.624	0.00305176	0.0147339
8.626	-0.0164795	0.0148437
8.628	-0.0238037	0.0150696
8.63	0.010376	0.0151245
8.632	0.0146484	0.0151123
8.634	0.0177002	0.0152588
8.636	0	0.0150452
8.638	0.012207	0.0151245
8.64	-0.012207	0.0150635
8.642	0.0158691	0.0151733
8.644	0.00488281	0.0151367
8.646	0.0012207	0.015094
8.648	-0.0177002	0.0151611
8.65	0.0195313	0.0152222
8.652	-0.00915527	0.015271
8.654	-0.0183105	0.0154541
8.656	-0.0335693	0.0154846
8.658	0.00732422	0.01521
8.66	0.00671387	0.0151611
8.662	0.000610352	0.0151489
8.664	0.00732422	0.0148804
8.666	-0.0115967	0.0146057
8.668	-0.0134277	0.0145752
8.67	-0.0170898	0.0147278
8.672	0.0549316	0.01521
8.674	0.0244141	0.0152588
8.676	-0.0115967	0.0153137
8.678	-0.00793457	0.0151184
8.68	-0.00427246	0.0149902
8.682	-0.00793457	0.0147888
8.684	-0.0146484	0.0146423
8.686	-0.0195313	0.0143127
8.688	0.0213623	0.0140991
8.69	0.00549316	0.0138184
8.692	0.00610352	0.0135254
8.694	0	0.0134583
8.696	-0.00793457	0.0134583
8.698	-0.0250244	0.0135193
8.7	0.00915527	0.0135742
8.702	0.020752	0.0136475
8.704	0.00671387	0.0136963
8.706	-0.00793457	0.0136719
8.708	-0.0201416	0.0136841
8.71	-0.0335693	0.0139099
8.712	0.00305176	0.0138367
8.714	0	0.0135559
8.716	0.032959	0.0138672
8.718	0.0219727	0.0136902
8.72	-0.0201416	0.0138916
8.722	0.00915527	0.0137268
8.724	-0.0390625	0.0136414
8.726	-0.0177002	0.0135925
8.728	0.0256348	0.0138367
8.73	-0.00976563	0.0138489
8.732	0	0.0136414
8.734	0.0518799	0.0135254
8.736	-0.0305176	0.0137756
8.738	-0.0134277	0.0136658
8.74	-0.0305176	0.013678
8.742	0.00610352	0.0136475
8.744	0.0311279	0.0138855
8.746	0.0231934	0.0140564
8.748	-0.0158691	0.0141479
8.75	-0.0140381	0.0142212
8.752	-0.00427246	0.0141541
8.754	-0.0250244	0.0142578
8.756	-0.0170898	0.0144043
8.758	-0.00976563	0.014386
8.76	-0.0012207	0.0143738
8.762	0.0286865	0.0144897
8.764	0.012207	0.0144714
8.766	0.0012207	0.0144775
8.768	0.0238037	0.0146606
8.77	-0.00610352	0.014624
8.772	0.00244141	0.0145508
8.774	-0.0170898	0.0146973
8.776	-0.0231934	0.0148437
8.778	0.00793457	0.014801
8.78	0.022583	0.014856
8.782	-0.0109863	0.014917
8.784	-0.03479	0.0151062
8.786	0.0012207	0.0149353
8.788	-0.0109863	0.0149353
8.79	-0.0146484	0.0150146
8.792	0.00854492	0.0146484
8.794	0.0317383	0.0149597
8.796	-0.0250244	0.0151306
8.798	0.0219727	0.015332
8.8	0.0427246	0.0156311
8.802	0.00854492	0.0155273
8.804	-0.0622559	0.0161316
8.806	0.00610352	0.0160156
8.808	0.0109863	0.0160217
8.81	0.0012207	0.0160156
8.812	-0.010376	0.0159119
8.814	-0.0152588	0.01604
8.816	0.00549316	0.0158813
8.818	0.0134277	0.0157776
8.82	-0.0170898	0.0157593
8.822	-0.0311279	0.0158752
8.824	-0.00854492	0.0159302
8.826	0.00366211	0.015802
8.828	0.0457764	0.0160217
8.83	0.00244141	0.0159424
8.832	-0.000610352	0.015802
8.834	-0.0158691	0.0157837
8.836	-0.00305176	0.0158142
8.838	0.00976563	0.0157898
8.84	0.00427246	0.0157104
8.842	0.00183105	0.0155701
8.844	-0.00915527	0.0156128
8.846	-0.0219727	0.0158203
8.848	-0.0012207	0.0156555
8.85	0.00427246	0.0155029
8.852	-0.0292969	0.0157043
8.854	0.010376	0.015625
8.856	0.0219727	0.015509
8.858	0.00671387	0.0155029
8.86	0.0219727	0.0156555
8.862	-0.0360107	0.0160095
8.864	-0.0164795	0.0161011
8.866	0.00854492	0.0160706
8.868	0.0274658	0.0162109
8.87	-0.00244141	0.0160645
8.872	-0.0256348	0.0157715
8.874	-0.010376	0.0156311
8.876	-0.00549316	0.0155701
8.878	0.0128174	0.0156189
8.88	-0.00793457	0.0156555
8.882	0.00305176	0.0156067
8.884	0.0201416	0.0156616
8.886	0.00793457	0.0155457
8.888	0.0146484	0.0154785
8.89	-0.000610352	0.0154297
8.892	0.012207	0.0154907
8.894	-0.00732422	0.015564
8.896	-0.0537109	0.0160217
8.898	-0.0164795	0.0159363
8.9	0.000610352	0.0158508
8.902	0.00366211	0.0156799
8.904	0.00610352	0.0156738
8.906	-0.0012207	0.0156067
8.908	-0.0140381	0.0155457
8.91	0.00366211	0.0152466
8.912	0.0311279	0.0155273
8.914	-0.0134277	0.0156616
8.916	-0.0012207	0.0153442
8.918	0.00366211	0.0151611
8.92	-0.00671387	0.0150269
8.922	0.0170898	0.0151062
8.924	-0.0183105	0.0148987
8.926	-0.0140381	0.0148621
8.928	0.0231934	0.0148376
8.93	0.0140381	0.0148804
8.932	-0.00610352	0.0149414
8.934	-0.000610352	0.0144287
8.936	-0.0170898	0.0142944
8.938	-0.00366211	0.0141968
8.94	0.0115967	0.0140076
8.942	-0.010376	0.0140503
8.944	-0.0109863	0.0138489
8.946	-0.0128174	0.0137451
8.948	0.00366211	0.013623
8.95	0.0115967	0.0135986
8.952	-0.0183105	0.013739
8.954	-0.00366211	0.0135254
8.956	0.0195313	0.0135498
8.958	0.00244141	0.0134766
8.96	0.0109863	0.0135742
8.962	-0.0128174	0.0134155
8.964	0.00610352	0.0133545
8.966	0.00183105	0.0133606
8.968	0.00244141	0.013147
8.97	0.0183105	0.013269
8.972	-0.012207	0.0133667
8.974	-0.010376	0.0132996
8.976	-0.0360107	0.0134277
8.978	0.0158691	0.0135071
8.98	0.00671387	0.0133484
8.982	-0.0128174	0.0133667
8.984	0	0.0130188
8.986	-0.0189209	0.0131958
8.988	0.00366211	0.0131226
8.99	-0.00854492	0.0130615
8.992	-0.00305176	0.0130066
8.994	0.0195313	0.0128845
8.996	0.0354004	0.0129883
8.998	0.012207	0.0128906
9	-0.0195313	0.0126587
9.002	0.00305176	0.0126038
9.004	-0.0268555	0.0122498
9.006	0.00366211	0.0122253
9.008	-0.00793457	0.0121948
9.01	-0.00183105	0.0122009
9.012	-0.010376	0.0122009
9.014	-0.00976563	0.012146
9.016	0.00305176	0.0121216
9.018	0.0115967	0.0121033
9.02	-0.00915527	0.0120239
9.022	0.00244141	0.0117371
9.024	0.020752	0.0118591
9.026	-0.00488281	0.0118713
9.028	-0.00427246	0.0114563
9.03	-0.0109863	0.0115417
9.032	-0.0109863	0.0116455
9.034	-0.00244141	0.0115112
9.036	0.00610352	0.0115417
9.038	-0.00976563	0.0115417
9.04	0.00427246	0.0115417
9.042	0.00793457	0.0116028
9.044	0.0189209	0.0117004
9.046	-0.0201416	0.0116821
9.048	-0.0012207	0.0116821
9.05	0.00671387	0.0117065
9.052	-0.00976563	0.0115112
9.054	0.00427246	0.0114502
9.056	0.020752	0.011438
9.058	-0.00976563	0.0114685
9.06	-0.0189209	0.011438
9.062	-0.0115967	0.0111938
9.064	-0.00488281	0.0110779
9.066	0.00183105	0.0110107
9.068	-0.00915527	0.0108276
9.07	-0.00854492	0.0108887
9.072	0.0109863	0.0107422
9.074	-0.000610352	0.0106445
9.076	-0.00610352	0.0106506
9.078	0.00976563	0.0106201
9.08	-0.012207	0.0106628
9.082	0.00671387	0.0106995
9.084	0.0128174	0.0106262
9.086	-0.00244141	0.0105713
9.088	-0.00915527	0.0105164
9.09	0.0158691	0.0106689
9.092	0.0189209	0.0107361
9.094	-0.0274658	0.0109375
9.096	0.00366211	0.010437
9.098	-0.0354004	0.0106262
9.1	-0.00244141	0.0106445
9.102	0.00915527	0.0106995
9.104	0.0012207	0.0106506
9.106	0	0.0106384
9.108	-0.00366211	0.0105347
9.11	-0.0012207	0.0105103
9.112	0.00366211	0.0102356
9.114	-0.00976563	0.010199
9.116	-0.0012207	0.010199
9.118	0.0244141	0.0104065
9.12	0.00732422	0.0104126
9.122	-0.0012207	0.0102539
9.124	0.00915527	0.0101624
9.126	-0.0170898	0.0101929
9.128	0.0146484	0.0101074
9.13	-0.0158691	0.0101257
9.132	-0.0238037	0.0103027
9.134	-0.0372314	0.0106689
9.136	0.0170898	0.0106689
9.138	0.0262451	0.0108948
9.14	-0.0201416	0.0109802
9.142	-0.00915527	0.010968
9.144	-0.00915527	0.0109497
9.146	-0.00427246	0.0108643
9.148	0.00549316	0.0108826
9.15	0.00366211	0.0108032
9.152	0.0274658	0.0108948
9.154	0	0.0108582
9.156	0.00244141	0.0106873
9.158	0.00366211	0.0106995
9.16	0	0.0105896
9.162	0.0177002	0.0106384
9.164	-0.0488281	0.0110657
9.166	-0.0268555	0.0113159
9.168	0.0146484	0.011438
9.17	0.0152588	0.0114075
9.172	0.00915527	0.011377
9.174	-0.0213623	0.0114868
9.176	-0.010376	0.0112305
9.178	0.00244141	0.0110962
9.18	0.00488281	0.0110779
9.182	-0.0115967	0.0110657
9.184	0.0152588	0.0112183
9.186	0.020752	0.0112366
9.188	-0.0012207	0.0112122
9.19	-0.0250244	0.011377
9.192	-0.0201416	0.0115479
9.194	0.0109863	0.0114624
9.196	0.00915527	0.0112
9.198	0.0146484	0.0112244
9.2	0.0115967	0.011145
9.202	-0.0201416	0.0113159
9.204	0.000610352	0.0110535
9.206	-0.0183105	0.0112
9.208	-0.00915527	0.0112122
9.21	0.010376	0.0112976
9.212	0.00793457	0.0112732
9.214	0.0158691	0.0113342
9.216	-0.00732422	0.011377
9.218	-0.0152588	0.0114136
9.22	-0.0170898	0.0114929
9.222	0	0.0114685
9.224	-0.00732422	0.0113342
9.226	0.0250244	0.0115356
9.228	0.0152588	0.0116455
9.23	-0.0128174	0.0116638
9.232	-0.0146484	0.0117004
9.234	-0.0115967	0.011792
9.236	0.00793457	0.0118103
9.238	0.0323486	0.0120361
9.24	-0.0213623	0.012207
9.242	-0.0390625	0.0125183
9.244	0.00915527	0.0124207
9.246	-0.00244141	0.0122437
9.248	0.0268555	0.0125
9.25	-0.00183105	0.0124512
9.252	-0.0140381	0.0124939
9.254	0.00976563	0.0125488
9.256	0.000610352	0.0123474
9.258	0.00793457	0.0123291
9.26	0.00427246	0.0121826
9.262	-0.0280762	0.0123474
9.264	0.00305176	0.0123291
9.266	-0.0152588	0.0124634
9.268	0.0415039	0.0127869
9.27	-0.0115967	0.0128174
9.272	0.00854492	0.012793
9.274	-0.00244141	0.0128113
9.276	-0.0360107	0.0131104
9.278	-0.0421143	0.0134338
9.28	0.00854492	0.0133972
9.282	0.0256348	0.0135864
9.284	-0.0158691	0.0136169
9.286	-0.00366211	0.0136292
9.288	0.00366211	0.0135742
9.29	0.00488281	0.0134644
9.292	0.000610352	0.0132813
9.294	0.010376	0.0131104
9.296	0.0189209	0.0132629
9.298	0.0128174	0.0130371
9.3	-0.0152588	0.0131653
9.302	-0.0012207	0.0130859
9.304	0.0164795	0.0132385
9.306	0.000610352	0.0132446
9.308	-0.0299072	0.0135071
9.31	-0.0201416	0.0136963
9.312	-0.00427246	0.0137024
9.314	0	0.0136047
9.316	-0.00488281	0.0136414
9.318	0.00610352	0.0134583
9.32	0.0238037	0.013623
9.322	-0.00427246	0.0136536
9.324	0.000610352	0.0135681
9.326	-0.0128174	0.0135254
9.328	0.00366211	0.0134155
9.33	-0.00732422	0.0133301
9.332	0	0.013092
9.334	0.0012207	0.0127319
9.336	0.00244141	0.0125854
9.338	0.00244141	0.0123474
9.34	0	0.012146
9.342	-0.0170898	0.0122253
9.344	-0.0238037	0.0123718
9.346	0.00976563	0.0124268
9.348	0.0213623	0.0125854
9.35	-0.0189209	0.012738
9.352	0.0189209	0.0126526
9.354	-0.0378418	0.013031
9.356	0.0262451	0.013269
9.358	0	0.0132324
9.36	-0.00549316	0.0132874
9.362	-0.0012207	0.0131226
9.364	0	0.0126343
9.366	0.0140381	0.0125061
9.368	0.00488281	0.0124084
9.37	-0.012207	0.0123779
9.372	-0.00366211	0.012323
9.374	-0.0109863	0.0122192
9.376	0.0262451	0.0123779
9.378	0.0262451	0.012616
9.38	-0.010376	0.0126709
9.382	-0.00183105	0.0125732
9.384	-0.0384521	0.0128052
9.386	-0.00549316	0.0126526
9.388	-0.0164795	0.0128052
9.39	0.0231934	0.0127869
9.392	0.0238037	0.0128235
9.394	0.00305176	0.0127441
9.396	0.00183105	0.0126709
9.398	-0.000610352	0.0125305
9.4	0.0115967	0.0125305
9.402	-0.0341797	0.0126709
9.404	0.000610352	0.0126709
9.406	-0.0360107	0.0128479
9.408	0.020752	0.0129639
9.41	0	0.0128601
9.412	0.0262451	0.0130432
9.414	-0.0427246	0.0133118
9.416	-0.0476074	0.0137146
9.418	-0.0128174	0.0136902
9.42	0.0152588	0.0136719
9.422	0.0305176	0.0139771
9.424	0.0384521	0.0142883
9.426	0.0177002	0.0142151
9.428	0.00488281	0.0141113
9.43	-0.0354004	0.0143372
9.432	-0.0219727	0.0144104
9.434	0.0384521	0.014679
9.436	-0.0128174	0.0147278
9.438	-0.0354004	0.0147583
9.44	-0.0140381	0.0146851
9.442	-0.00244141	0.0143188
9.444	0.00305176	0.0142578
9.446	-0.0213623	0.014447
9.448	0.0250244	0.0144287
9.45	0.0335693	0.0147461
9.452	0.00305176	0.0146362
9.454	-0.0311279	0.0148499
9.456	-0.00183105	0.0148621
9.458	0.0164795	0.0149475
9.46	-0.000610352	0.0149109
9.462	0.00549316	0.0146851
9.464	-0.0714111	0.0153687
9.466	0.045166	0.0156677
9.468	-0.00427246	0.0152954
9.47	-0.0256348	0.0154358
9.472	0	0.0153503
9.474	0.022583	0.0155518
9.476	0.0372314	0.015564
9.478	0.0183105	0.0153259
9.48	-0.0152588	0.0153931
9.482	0.00305176	0.0151672
9.484	-0.0848389	0.0158569
9.486	0.0317383	0.0161377
9.488	0.0170898	0.016272
9.49	0.0128174	0.0163513
9.492	-0.0402832	0.016748
9.494	-0.0201416	0.0168457
9.496	-0.0109863	0.0167664
9.498	0.00244141	0.0166626
9.5	0.0640869	0.0171509
9.502	-0.0360107	0.0174988
9.504	0.0115967	0.01745
9.506	0.0134277	0.0175781
9.508	0.00610352	0.0173401
9.51	-0.0390625	0.0175293
9.512	0.012207	0.0176086
9.514	0.00244141	0.0176331
9.516	0.045166	0.0180359
9.518	-0.0683594	0.0186584
9.52	0.0274658	0.0186951
9.522	0.000610352	0.0186584
9.524	-0.00305176	0.0186829
9.526	-0.0543213	0.0190979
9.528	-0.012207	0.0191833
9.53	0.0323486	0.0194336
9.532	-0.0268555	0.0197021
9.534	0.0158691	0.0198486
9.536	0.0396729	0.0202209
9.538	-0.00671387	0.0202637
9.54	0.0494385	0.0207581
9.542	0.0787354	0.0213745
9.544	0.0463867	0.0216003
9.546	-0.0531006	0.0220337
9.548	-0.216675	0.0239868
9.55	-0.0463867	0.0242615
9.552	0.0738525	0.0248108
9.554	0.0189209	0.0246216
9.556	0.00488281	0.024408
9.558	-0.0146484	0.0245544
9.56	-0.00366211	0.0245361
9.562	0.0866699	0.0253906
9.564	-0.0384521	0.0257751
9.566	0.0549316	0.0261841
9.568	-0.00305176	0.0261658
9.57	0.0671387	0.0267151
9.572	-0.0366211	0.0270447
9.574	0.0439453	0.0273743
9.576	-0.010376	0.0272156
9.578	-0.090332	0.0278564
9.58	-0.0854492	0.0286072
9.582	-0.166626	0.0302551
9.584	0.0506592	0.0303772
9.586	0.0256348	0.0305786
9.588	-0.0201416	0.0306152
9.59	0.0561523	0.0309448
9.592	0.174561	0.0324524
9.594	0.00793457	0.0325012
9.596	-0.107422	0.0335571
9.598	0.0323486	0.0338745
9.6	0.10376	0.0347961
9.602	-0.00366211	0.034491
9.604	-0.0366211	0.0348511
9.606	-0.0421143	0.0349121
9.608	-0.0109863	0.0348145
9.61	-0.0506592	0.035321
9.612	-0.200195	0.0370605
9.614	0.0506592	0.0371399
9.616	0.0500488	0.0371643
9.618	0.0231934	0.0372681
9.62	0.0354004	0.0374695
9.622	0.108643	0.0382507
9.624	0.153198	0.0393982
9.626	0.057373	0.0397949
9.628	-0.144653	0.0411926
9.63	-0.12085	0.0420471
9.632	-0.0604248	0.0424316
9.634	-0.0506592	0.0425537
9.636	0.0628662	0.0430542
9.638	-0.0732422	0.0434326
9.64	0.00244141	0.0433167
9.642	-0.012207	0.0434143
9.644	0.0292969	0.0436768
9.646	0.0372314	0.0438354
9.648	0.10437	0.0446289
9.65	0.117798	0.0454712
9.652	-0.032959	0.0457703
9.654	-0.0640869	0.0460999
9.656	-0.000610352	0.0460876
9.658	-0.0268555	0.0461914
9.66	-0.0146484	0.0463318
9.662	-0.055542	0.0468323
9.664	0.0262451	0.0463806
9.666	-0.0128174	0.0460571
9.668	0.0567627	0.046582
9.67	0.0219727	0.0465454
9.672	0.0506592	0.047052
9.674	-0.0769043	0.0475952
9.676	-0.0109863	0.0473328
9.678	0.078125	0.0479309
9.68	-0.0250244	0.0480286
9.682	-0.0518799	0.0485168
9.684	-0.0860596	0.0485291
9.686	0.103149	0.0492432
9.688	-0.0292969	0.0493652
9.69	0.17395	0.0509766
9.692	-0.0628662	0.0512024
9.694	-0.0201416	0.0512024
9.696	0.0396729	0.0514893
9.698	-0.00915527	0.0515564
9.7	-0.0756836	0.0516724
9.702	-0.0799561	0.0521118
9.704	-0.0726318	0.0527222
9.706	-0.0506592	0.0530945
9.708	0.0317383	0.0533508
9.71	-0.0158691	0.0531189
9.712	0.0378418	0.0533752
9.714	0.0860596	0.0542114
9.716	-0.110474	0.0548645
9.718	-0.043335	0.0546143
9.72	0.101929	0.0553589
9.722	0.0219727	0.0555725
9.724	-0.0140381	0.0556824
9.726	0.0592041	0.0557312
9.728	-0.0799561	0.0564087
9.73	-0.0012207	0.0560974
9.732	0.0415039	0.0562439
9.734	0.00244141	0.0561096
9.736	0.0128174	0.0558411
9.738	0.0231934	0.0560059
9.74	0.0317383	0.0558289
9.742	-0.0305176	0.0553467
9.744	0.0164795	0.0550476
9.746	-0.10498	0.0555664
9.748	-0.0268555	0.0536682
9.75	-0.0762939	0.0539673
9.752	0.111694	0.0543457
9.754	0.0268555	0.054425
9.756	-0.00854492	0.0544617
9.758	0.0268555	0.0545837
9.76	-0.00915527	0.0546387
9.762	0.00793457	0.0538513
9.764	-0.0695801	0.0541626
9.766	0.0305176	0.0539185
9.768	-0.0158691	0.0540466
9.77	0	0.0533752
9.772	0.00549316	0.053064
9.774	-0.0152588	0.0527771
9.776	0.00427246	0.0527161
9.778	-0.0909424	0.0527222
9.78	-0.0183105	0.0520508
9.782	0.0390625	0.0507751
9.784	0.0787354	0.0510559
9.786	0.0390625	0.0511902
9.788	-0.0170898	0.0511597
9.79	-0.020752	0.0508057
9.792	0.0512695	0.0495728
9.794	0.0897217	0.0503906
9.796	-0.0354004	0.0496704
9.798	-0.00793457	0.0494263
9.8	-0.0189209	0.0485779
9.802	-0.125122	0.0497925
9.804	-0.0933838	0.0503601
9.806	-0.0860596	0.0507996
9.808	0.0439453	0.0511292
9.81	0.130005	0.0519226
9.812	-0.0372314	0.050293
9.814	-0.032959	0.050116
9.816	-0.0610352	0.0502258
9.818	0.0177002	0.0501709
9.82	0.101929	0.0508362
9.822	0.140381	0.0511536
9.824	0.0244141	0.0498657
9.826	-0.12207	0.0505127
9.828	0.045166	0.0495178
9.83	0.112915	0.0494385
9.832	-0.127563	0.0501099
9.834	-0.170898	0.0513123
9.836	-0.0360107	0.0510437
9.838	0.110474	0.051416
9.84	0.126953	0.0526611
9.842	-0.0177002	0.0527161
9.844	0.00488281	0.0524719
9.846	-0.0201416	0.052301
9.848	-0.0311279	0.0515686
9.85	-0.0360107	0.0507507
9.852	-0.0427246	0.0508484
9.854	-0.144653	0.0516541
9.856	-0.00549316	0.0517029
9.858	0.0836182	0.0522705
9.86	0.0292969	0.052417
9.862	0.0579834	0.0524414
9.864	0.151978	0.0536987
9.866	0.0750732	0.0543213
9.868	-0.125732	0.055011
9.87	-0.0848389	0.0556396
9.872	0.090332	0.0560364
9.874	0.00244141	0.0552917
9.876	-0.0512695	0.0556946
9.878	-0.131836	0.0562317
9.88	0.0402832	0.0563843
9.882	-0.172119	0.0575867
9.884	-0.141602	0.0581421
9.886	-0.00244141	0.057135
9.888	0.158691	0.058429
9.89	0.181274	0.0585022
9.892	0.0836182	0.0587097
9.894	0.0292969	0.0588013
9.896	0.0170898	0.0585754
9.898	-0.0708008	0.0591919
9.9	-0.0604248	0.0590393
9.902	-0.000610352	0.0582458
9.904	0.140381	0.0589233
9.906	0.0793457	0.0592102
9.908	-0.133667	0.0602295
9.91	-0.264282	0.0627136
9.912	-0.00610352	0.0623962
9.914	0.022583	0.0617615
9.916	0.0292969	0.0609497
9.918	-0.00915527	0.0606079
9.92	0.134277	0.0609314
9.922	0.0164795	0.0608765
9.924	-0.0482178	0.0612183
9.926	0.166016	0.0622864
9.928	0.170288	0.0631897
9.93	-0.0634766	0.0638123
9.932	-0.175171	0.0651489
9.934	-0.252075	0.0676453
9.936	-0.0170898	0.067688
9.938	0.117798	0.068634
9.94	-0.180664	0.0701233
9.942	0.0378418	0.0701965
9.944	-0.0512695	0.0705444
9.946	0.0494385	0.069989
9.948	0.251465	0.0722351
9.95	-0.0524902	0.0719971
9.952	0.0421143	0.0713013
9.954	0.0994873	0.0720276
9.956	0.210571	0.0740479
9.958	-0.0372314	0.0741516
9.96	-0.368042	0.0777405
9.962	0.0372314	0.0780334
9.964	0.0134277	0.0774719
9.966	-0.142212	0.0785889
9.968	-0.0128174	0.0785583
9.97	0.134277	0.0799011
9.972	0.112915	0.0809753
9.974	-0.197754	0.0828003
9.976	0.233765	0.0850952
9.978	0.0976563	0.0851624
9.98	-0.0408936	0.0853882
9.982	0.0604248	0.0856018
9.984	-0.314941	0.0879639
9.986	0.179443	0.0893677
9.988	0.0860596	0.0900574
9.99	-0.0817871	0.0906677
9.992	-0.182495	0.09198
9.994	0.0457764	0.0915405
9.996	-0.0177002	0.0913635
9.998	0.247192	0.0937561
10	0.00732422	0.0936401
10.002	-0.0585938	0.0929749
10.004	0.115356	0.0931946
10.006	-0.352173	0.0958557
10.008	0.212402	0.0975403
10.01	-0.357056	0.0998108
10.012	-0.0323486	0.099762
10.014	-0.159302	0.101025
10.016	0.161743	0.102032
10.018	0.0585938	0.102441
10.02	0.357666	0.104999
10.022	0.302734	0.106622
10.024	0.012207	0.1065
10.026	0.0494385	0.105774
10.028	-0.300293	0.108325
10.03	-0.209961	0.109296
10.032	-0.204468	0.110065
10.034	0.17334	0.110089
10.036	-0.0646973	0.110376
10.038	-0.0170898	0.109442
10.04	0.0708008	0.108881
10.042	-0.231934	0.111023
10.044	0.0500488	0.111475
10.046	0.20752	0.113348
10.048	0.264893	0.115686
10.05	0.116577	0.116492
10.052	0.175781	0.117822
10.054	-0.0518799	0.116895
10.056	-0.214844	0.118988
10.058	-0.256958	0.120721
10.06	-0.0366211	0.120795
10.062	-0.0933838	0.121149
10.064	0.265503	0.122284
10.066	-0.106201	0.122595
10.068	-0.202026	0.123358
10.07	0.215454	0.124664
10.072	0.214844	0.125909
10.074	0.0256348	0.126141
10.076	-0.0982666	0.126611
10.078	-0.0488281	0.125781
10.08	0.0140381	0.125519
10.082	-0.177612	0.125574
10.084	-0.0189209	0.124347
10.086	0.065918	0.124982
10.088	0.0695801	0.124091
10.09	0.10437	0.123322
10.092	-0.231934	0.124805
10.094	0.111694	0.125629
10.096	0.130005	0.126758
10.098	-0.107422	0.127124
10.1	-0.0866699	0.127386
10.102	-0.167847	0.129059
10.104	0.137939	0.129034
10.106	0.0189209	0.12843
10.108	-0.507202	0.132166
10.11	0.261841	0.132141
10.112	0.460205	0.136682
10.114	0.0396729	0.136853
10.116	-0.253296	0.139093
10.118	0.0665283	0.139667
10.12	0.124512	0.139569
10.122	0.12207	0.140625
10.124	-0.0689697	0.140833
10.126	-0.160522	0.140778
10.128	-0.00610352	0.139136
10.13	-0.0561523	0.139063
10.132	0.114746	0.138458
10.134	-0.115356	0.137091
10.136	0.115967	0.13808
10.138	-0.012207	0.137024
10.14	-0.415649	0.139374
10.142	0.162964	0.140625
10.144	0.2771	0.142883
10.146	0.0201416	0.14259
10.148	0.0854492	0.14093
10.15	-0.209961	0.142505
10.152	-0.045166	0.142535
10.154	0.192871	0.143469
10.156	0.188599	0.14325
10.158	-0.202026	0.144897
10.16	-0.142212	0.142639
10.162	-0.0366211	0.142633
10.164	0.111694	0.143616
10.166	-0.0561523	0.142755
10.168	-0.00183105	0.142645
10.17	0.00610352	0.141364
10.172	0.00366211	0.140271
10.174	-0.0109863	0.138403
10.176	0.0311279	0.136377
10.178	-0.298462	0.138385
10.18	0.256958	0.140546
10.182	0.200806	0.141949
10.184	0.232544	0.141125
10.186	-0.0335693	0.139667
10.188	-0.31189	0.141925
10.19	-0.350952	0.144617
10.192	0.100098	0.143793
10.194	0.0598145	0.143933
10.196	0.107422	0.14483
10.198	-0.172119	0.14408
10.2	-0.152588	0.145532
10.202	0.0891113	0.145837
10.204	0.0927734	0.145612
10.206	-0.159302	0.143683
10.208	0.117798	0.142737
10.21	0.0311279	0.139478
10.212	0.0177002	0.139331
10.214	0.134888	0.139087
10.216	0.140381	0.138873
10.218	-0.0311279	0.138599
10.22	0.0311279	0.135333
10.222	-0.187988	0.134186
10.224	-0.0982666	0.135046
10.226	-0.0518799	0.135071
10.228	0.126953	0.133337
10.23	-0.123291	0.132471
10.232	0.306396	0.13349
10.234	0.0158691	0.131915
10.236	-0.0128174	0.131396
10.238	-0.136719	0.132593
10.24	-0.137939	0.133264
10.242	0.285034	0.133795
10.244	0.22583	0.135553
10.246	-0.180664	0.135284
10.248	-0.0811768	0.133447
10.25	-0.0769043	0.133051
10.252	0.159302	0.132886
10.254	-0.380249	0.136169
10.256	-0.164795	0.135669
10.258	0.113525	0.134235
10.26	0.108643	0.134955
10.262	-0.0140381	0.134161
10.264	0.102539	0.132532
10.266	0.110474	0.132574
10.268	0.0506592	0.131061
10.27	0.0842285	0.129749
10.272	-0.302124	0.130621
10.274	0.142822	0.131793
10.276	0.238037	0.133191
10.278	0.0317383	0.13302
10.28	-0.169678	0.134576
10.282	0.0793457	0.133594
10.284	0.00183105	0.133423
10.286	-0.0396729	0.13316
10.288	-0.200806	0.134473
10.29	-0.253296	0.135962
10.292	0.24353	0.136078
10.294	0.172119	0.136682
10.296	0.199585	0.137378
10.298	0.00854492	0.136389
10.3	0.231323	0.137836
10.302	-0.254517	0.138702
10.304	-0.596924	0.143292
10.306	-0.141602	0.144519
10.308	0.0799561	0.140247
10.31	0.0415039	0.138043
10.312	0.197754	0.135419
10.314	0.0634766	0.135657
10.316	0.0280762	0.133405
10.318	0.045166	0.133191
10.32	-0.160522	0.133551
10.322	0.152588	0.133856
10.324	0.175781	0.134924
10.326	0.0140381	0.133459
10.328	0.0463867	0.133862
10.33	-0.128174	0.134583
10.332	-0.00488281	0.133484
10.334	0.181274	0.134143
10.336	-0.252686	0.13551
10.338	-0.144043	0.136829
10.34	-0.123291	0.133905
10.342	0.0305176	0.132581
10.344	0.169678	0.131506
10.346	0.265503	0.13396
10.348	0.102539	0.134131
10.35	-0.215454	0.134186
10.352	-0.0762939	0.134497
10.354	-0.0274658	0.132843
10.356	-0.258179	0.133539
10.358	0.19104	0.133429
10.36	0.00671387	0.132074
10.362	-0.045166	0.132159
10.364	0.0323486	0.131366
10.366	0.0866699	0.131671
10.368	0.0738525	0.132391
10.37	0.00244141	0.132355
10.372	-0.0817871	0.133136
10.374	-0.194702	0.134973
10.376	0.0872803	0.135535
10.378	0.0170898	0.132721
10.38	0.0439453	0.130591
10.382	0.0860596	0.129443
10.384	0.267334	0.129791
10.386	-0.057373	0.130029
10.388	-0.234375	0.129254
10.39	-0.105591	0.126801
10.392	-0.00244141	0.125824
10.394	0.183105	0.127057
10.396	-0.230713	0.12829
10.398	-0.159302	0.128162
10.4	0.201416	0.12865
10.402	0.105591	0.128815
10.404	-0.150146	0.129388
10.406	-0.0543213	0.128339
10.408	0.0854492	0.128015
10.41	-0.10437	0.128748
10.412	0.10376	0.129608
10.414	-0.0488281	0.128748
10.416	0.0524902	0.127869
10.418	0.219116	0.129749
10.42	0.0360107	0.129797
10.422	-0.330811	0.131226
10.424	0.0506592	0.13075
10.426	-0.0585938	0.130817
10.428	0.346069	0.133008
10.43	0.0128174	0.131903
10.432	-0.0848389	0.129688
10.434	-0.237427	0.131903
10.436	0.102539	0.1328
10.438	-0.0213623	0.131647
10.44	-0.0799561	0.131067
10.442	0.140991	0.129626
10.444	0.214844	0.129517
10.446	-0.120239	0.128912
10.448	-0.344849	0.131549
10.45	-0.101318	0.131793
10.452	0.22644	0.132465
10.454	0.355225	0.132214
10.456	0.0231934	0.130798
10.458	-0.198975	0.131653
10.46	0.067749	0.131244
10.462	-0.0415039	0.131519
10.464	-0.20874	0.132581
10.466	-0.0415039	0.131891
10.468	0.113525	0.13252
10.47	-0.00549316	0.131732
10.472	0.116577	0.129877
10.474	-0.0323486	0.128772
10.476	-0.0604248	0.126996
10.478	0.118408	0.127863
10.48	0.131836	0.127484
10.482	-0.261841	0.129309
10.484	0.0201416	0.129492
10.486	-0.0134277	0.12923
10.488	-0.0238037	0.12746
10.49	-0.273438	0.127661
10.492	0.20752	0.127301
10.494	0.0366211	0.125946
10.496	0.020752	0.124158
10.498	0.120239	0.125275
10.5	-0.184937	0.124811
10.502	-0.0494385	0.12276
10.504	0.0616455	0.117407
10.506	0.205688	0.118048
10.508	-0.00793457	0.117328
10.51	-0.212402	0.119037
10.512	0.217896	0.119238
10.514	0.249023	0.121094
10.516	-0.0646973	0.12146
10.518	-0.272217	0.12373
10.52	-0.101929	0.123145
10.522	-0.0482178	0.122101
10.524	0.130615	0.121649
10.526	0.144653	0.122955
10.528	0.0970459	0.123462
10.53	-0.316772	0.125348
10.532	-0.0860596	0.12616
10.534	-0.0183105	0.12453
10.536	0.325928	0.125262
10.538	0.0183105	0.124005
10.54	-0.245361	0.125226
10.542	-0.218506	0.127106
10.544	0.0524902	0.125934
10.546	0.0512695	0.123792
10.548	-0.045166	0.123218
10.55	0.0970459	0.122034
10.552	0.301514	0.124286
10.554	-0.117798	0.125189
10.556	-0.00366211	0.122644
10.558	0.032959	0.121063
10.56	0.0286865	0.121283
10.562	-0.0628662	0.12146
10.564	0.020752	0.121344
10.566	-0.102539	0.121503
10.568	-0.0012207	0.120776
10.57	0.360107	0.124353
10.572	-0.12207	0.124756
10.574	-0.254517	0.125354
10.576	-0.318604	0.127667
10.578	0.20813	0.129578
10.58	0.0823975	0.129962
10.582	0.12085	0.13031
10.584	0.142212	0.129059
10.586	-0.128174	0.129767
10.588	-0.151367	0.128937
10.59	-0.167847	0.129559
10.592	0.0506592	0.130042
10.594	0.19165	0.130127
10.596	0.109253	0.128912
10.598	0.0244141	0.127563
10.6	-0.0366211	0.125916
10.602	-0.105591	0.125916
10.604	0.032959	0.124744
10.606	0.249023	0.126691
10.608	0.123901	0.127075
10.61	0.0256348	0.126288
10.612	0.0793457	0.126044
10.614	-0.36377	0.129193
10.616	-0.253296	0.131201
10.618	0.0341797	0.129352
10.62	0.0921631	0.129913
10.622	-0.0195313	0.126801
10.624	-0.0427246	0.126721
10.626	-0.0256348	0.126392
10.628	0.140991	0.124341
10.63	0.0488281	0.124701
10.632	-0.00427246	0.123895
10.634	-0.258179	0.124103
10.636	0.0323486	0.123401
10.638	0.0823975	0.124011
10.64	0.03479	0.12356
10.642	0.0427246	0.122577
10.644	0.03479	0.120776
10.646	-0.0317383	0.119891
10.648	0.0335693	0.116779
10.65	0.140991	0.117175
10.652	0.0585938	0.115497
10.654	0.057373	0.112518
10.656	0.012207	0.112408
10.658	-0.169067	0.112109
10.66	-0.130615	0.112738
10.662	0.0494385	0.112817
10.664	0.0506592	0.111237
10.666	-0.159912	0.112421
10.668	0.0384521	0.11167
10.67	-0.136719	0.112982
10.672	-0.211792	0.113934
10.674	0.367432	0.117285
10.676	0.119629	0.117877
10.678	-0.12085	0.117902
10.68	0.0238037	0.116821
10.682	-0.0531006	0.114734
